OOIBase32 Version 2.0.2.2 Data File
++++++++++++++++++++++++++++++++++++
Date: Thursday, June 02, 2016, 12:49:44
User: Valued Ocean Optics Customer
Spectrometer Serial Number: HR2B941
Spectrometer Channel: Master
Integration Time (msec): 23
Spectra Averaged: 50
Boxcar Smoothing: 10
Correct for Electrical Dark: Disabled
Time Normalized: Disabled
Dual-beam Reference: Disabled
Reference Channel: Master
Temperature: Not acquired
Spectrometer Type: S2000
ADC Type: HR2000
Number of Pixels in File: 2048
Graph Title: 
>>>>>Begin Spectral Data<<<<<
188.45	0.000
188.92	111.710
189.40	117.534
189.87	111.132
190.34	117.837
190.81	108.571
191.28	109.273
191.75	107.194
192.22	112.121
192.69	109.559
193.16	110.546
193.63	111.940
194.10	109.307
194.57	110.495
195.04	105.039
195.51	110.913
195.98	107.341
196.45	109.543
196.92	108.386
197.39	111.523
197.86	109.441
198.33	106.080
198.80	115.304
199.27	109.690
199.74	130.000
200.21	233.482
200.68	228.225
201.15	253.664
201.62	284.028
202.09	320.542
202.56	375.491
203.03	452.809
203.50	562.523
203.97	741.878
204.44	1150.645
204.91	2301.945
205.38	7904.591
205.85	-10359.112
206.32	-3086.425
206.79	-1637.481
207.26	-1072.163
207.73	-730.419
208.20	-529.593
208.67	-381.685
209.14	-278.882
209.61	-200.374
210.08	-145.225
210.55	-105.780
211.02	-76.282
211.49	-56.509
211.96	-43.315
212.43	-33.533
212.90	-26.543
213.37	-21.486
213.83	-17.746
214.30	-14.921
214.77	-12.620
215.24	-10.748
215.71	-9.229
216.18	-7.978
216.65	-6.925
217.12	-6.078
217.59	-5.375
218.06	-4.806
218.53	-4.288
219.00	-3.858
219.47	-3.427
219.94	-3.061
220.41	-2.754
220.87	-2.467
221.34	-2.205
221.81	-1.963
222.28	-1.755
222.75	-1.559
223.22	-1.382
223.69	-1.222
224.16	-1.070
224.63	-0.932
225.10	-0.804
225.56	-0.685
226.03	-0.565
226.50	-0.452
226.97	-0.345
227.44	-0.245
227.91	-0.139
228.38	-0.042
228.85	0.054
229.32	0.144
229.78	0.230
230.25	0.318
230.72	0.392
231.19	0.467
231.66	0.538
232.13	0.613
232.60	0.683
233.06	0.748
233.53	0.811
234.00	0.876
234.47	0.948
234.94	1.021
235.41	1.100
235.88	1.166
236.34	1.230
236.81	1.291
237.28	1.354
237.75	1.416
238.22	1.477
238.69	1.539
239.15	1.589
239.62	1.646
240.09	1.697
240.56	1.749
241.03	1.795
241.50	1.840
241.96	1.888
242.43	1.930
242.90	1.976
243.37	2.020
243.84	2.058
244.30	2.085
244.77	2.115
245.24	2.130
245.71	2.155
246.18	2.176
246.64	2.201
247.11	2.219
247.58	2.232
248.05	2.243
248.52	2.254
248.98	2.275
249.45	2.287
249.92	2.301
250.39	2.310
250.85	2.322
251.32	2.330
251.79	2.331
252.26	2.330
252.73	2.324
253.19	2.319
253.66	2.317
254.13	2.322
254.60	2.324
255.06	2.324
255.53	2.318
256.00	2.314
256.47	2.307
256.93	2.299
257.40	2.295
257.87	2.294
258.34	2.290
258.80	2.278
259.27	2.267
259.74	2.257
260.20	2.250
260.67	2.238
261.14	2.225
261.61	2.215
262.07	2.209
262.54	2.205
263.01	2.193
263.48	2.179
263.94	2.166
264.41	2.151
264.88	2.141
265.34	2.127
265.81	2.109
266.28	2.093
266.75	2.083
267.21	2.064
267.68	2.045
268.15	2.026
268.61	2.007
269.08	1.984
269.55	1.961
270.01	1.935
270.48	1.910
270.95	1.889
271.41	1.863
271.88	1.837
272.35	1.803
272.81	1.776
273.28	1.745
273.75	1.707
274.21	1.671
274.68	1.634
275.15	1.602
275.61	1.571
276.08	1.536
276.55	1.496
277.01	1.461
277.48	1.422
277.95	1.378
278.41	1.338
278.88	1.298
279.35	1.259
279.81	1.217
280.28	1.182
280.75	1.141
281.21	1.109
281.68	1.075
282.14	1.050
282.61	1.023
283.08	0.994
283.54	0.971
284.01	0.941
284.47	0.917
284.94	0.891
285.41	0.872
285.87	0.852
286.34	0.836
286.81	0.818
287.27	0.799
287.74	0.788
288.20	0.769
288.67	0.755
289.14	0.737
289.60	0.726
290.07	0.704
290.53	0.690
291.00	0.670
291.46	0.651
291.93	0.631
292.40	0.608
292.86	0.587
293.33	0.565
293.79	0.548
294.26	0.523
294.72	0.495
295.19	0.459
295.66	0.422
296.12	0.389
296.59	0.357
297.05	0.326
297.52	0.288
297.98	0.254
298.45	0.217
298.91	0.181
299.38	0.143
299.85	0.111
300.31	0.077
300.78	0.042
301.24	0.007
301.71	-0.032
302.17	-0.068
302.64	-0.107
303.10	-0.141
303.57	-0.182
304.03	-0.215
304.50	-0.246
304.96	-0.276
305.43	-0.302
305.89	-0.338
306.36	-0.366
306.82	-0.395
307.29	-0.423
307.75	-0.450
308.22	-0.472
308.68	-0.489
309.15	-0.506
309.61	-0.529
310.08	-0.552
310.54	-0.562
311.01	-0.567
311.47	-0.564
311.94	-0.569
312.40	-0.571
312.87	-0.574
313.33	-0.565
313.80	-0.553
314.26	-0.535
314.73	-0.505
315.19	-0.473
315.66	-0.427
316.12	-0.381
316.59	-0.324
317.05	-0.262
317.51	-0.184
317.98	-0.101
318.44	-0.013
318.91	0.086
319.37	0.199
319.84	0.337
320.30	0.480
320.77	0.636
321.23	0.798
321.69	0.980
322.16	1.185
322.62	1.409
323.09	1.652
323.55	1.911
324.02	2.189
324.48	2.458
324.94	2.737
325.41	3.025
325.87	3.337
326.34	3.656
326.80	3.957
327.27	4.267
327.73	4.567
328.19	4.875
328.66	5.194
329.12	5.511
329.59	5.805
330.05	6.094
330.51	6.376
330.98	6.639
331.44	6.897
331.90	7.136
332.37	7.369
332.83	7.582
333.30	7.808
333.76	8.011
334.22	8.199
334.69	8.383
335.15	8.561
335.61	8.724
336.08	8.869
336.54	9.020
337.01	9.155
337.47	9.305
337.93	9.441
338.40	9.558
338.86	9.665
339.32	9.782
339.79	9.877
340.25	9.963
340.71	10.061
341.18	10.155
341.64	10.251
342.10	10.323
342.57	10.400
343.03	10.472
343.49	10.536
343.96	10.592
344.42	10.648
344.88	10.706
345.35	10.754
345.81	10.815
346.27	10.858
346.74	10.906
347.20	10.944
347.66	10.978
348.12	11.017
348.59	11.054
349.05	11.072
349.51	11.106
349.98	11.140
350.44	11.168
350.90	11.201
351.36	11.222
351.83	11.251
352.29	11.274
352.75	11.298
353.22	11.316
353.68	11.328
354.14	11.337
354.60	11.343
355.07	11.364
355.53	11.358
355.99	11.366
356.45	11.368
356.92	11.373
357.38	11.381
357.84	11.380
358.30	11.377
358.77	11.381
359.23	11.386
359.69	11.375
360.15	11.385
360.62	11.371
361.08	11.365
361.54	11.356
362.00	11.356
362.47	11.351
362.93	11.349
363.39	11.355
363.85	11.370
364.32	11.379
364.78	11.385
365.24	11.398
365.70	11.405
366.16	11.408
366.63	11.404
367.09	11.411
367.55	11.409
368.01	11.406
368.47	11.407
368.94	11.399
369.40	11.410
369.86	11.405
370.32	11.412
370.78	11.424
371.25	11.426
371.71	11.427
372.17	11.421
372.63	11.416
373.09	11.416
373.55	11.415
374.02	11.418
374.48	11.412
374.94	11.420
375.40	11.430
375.86	11.437
376.32	11.438
376.79	11.445
377.25	11.465
377.71	11.489
378.17	11.496
378.63	11.511
379.09	11.514
379.55	11.526
380.02	11.539
380.48	11.538
380.94	11.555
381.40	11.562
381.86	11.577
382.32	11.586
382.78	11.595
383.24	11.593
383.71	11.594
384.17	11.594
384.63	11.590
385.09	11.584
385.55	11.588
386.01	11.603
386.47	11.604
386.93	11.616
387.39	11.608
387.86	11.614
388.32	11.618
388.78	11.618
389.24	11.616
389.70	11.614
390.16	11.623
390.62	11.619
391.08	11.622
391.54	11.620
392.00	11.627
392.46	11.628
392.92	11.632
393.39	11.638
393.85	11.640
394.31	11.649
394.77	11.645
395.23	11.648
395.69	11.635
396.15	11.635
396.61	11.618
397.07	11.620
397.53	11.616
397.99	11.618
398.45	11.621
398.91	11.623
399.37	11.629
399.83	11.623
400.29	11.626
400.75	11.624
401.21	11.633
401.67	11.633
402.13	11.626
402.59	11.622
403.05	11.609
403.51	11.609
403.97	11.605
404.43	11.607
404.89	11.600
405.35	11.605
405.81	11.604
406.27	11.604
406.73	11.602
407.19	11.599
407.65	11.594
408.11	11.590
408.57	11.594
409.03	11.593
409.49	11.605
409.95	11.603
410.41	11.604
410.87	11.595
411.33	11.594
411.79	11.601
412.25	11.607
412.71	11.620
413.17	11.617
413.63	11.619
414.09	11.628
414.55	11.631
415.01	11.628
415.47	11.633
415.93	11.642
416.39	11.651
416.85	11.654
417.31	11.657
417.77	11.666
418.23	11.665
418.69	11.667
419.14	11.661
419.60	11.661
420.06	11.676
420.52	11.687
420.98	11.698
421.44	11.696
421.90	11.704
422.36	11.702
422.82	11.713
423.28	11.719
423.74	11.719
424.20	11.733
424.65	11.749
425.11	11.752
425.57	11.760
426.03	11.761
426.49	11.761
426.95	11.766
427.41	11.765
427.87	11.760
428.33	11.756
428.78	11.744
429.24	11.736
429.70	11.713
430.16	11.691
430.62	11.674
431.08	11.657
431.54	11.639
432.00	11.621
432.45	11.603
432.91	11.580
433.37	11.561
433.83	11.539
434.29	11.518
434.75	11.495
435.20	11.473
435.66	11.450
436.12	11.440
436.58	11.422
437.04	11.412
437.50	11.410
437.95	11.404
438.41	11.406
438.87	11.403
439.33	11.409
439.79	11.418
440.25	11.423
440.70	11.432
441.16	11.428
441.62	11.429
442.08	11.420
442.54	11.409
442.99	11.400
443.45	11.383
443.91	11.377
444.37	11.367
444.83	11.356
445.28	11.349
445.74	11.336
446.20	11.328
446.66	11.314
447.12	11.302
447.57	11.295
448.03	11.289
448.49	11.283
448.95	11.271
449.40	11.261
449.86	11.250
450.32	11.243
450.78	11.243
451.23	11.240
451.69	11.243
452.15	11.251
452.61	11.257
453.06	11.265
453.52	11.268
453.98	11.272
454.44	11.275
454.89	11.274
455.35	11.277
455.81	11.280
456.27	11.285
456.72	11.284
457.18	11.284
457.64	11.279
458.10	11.283
458.55	11.290
459.01	11.295
459.47	11.301
459.92	11.305
460.38	11.313
460.84	11.318
461.29	11.325
461.75	11.332
462.21	11.335
462.67	11.337
463.12	11.343
463.58	11.346
464.04	11.350
464.49	11.357
464.95	11.362
465.41	11.363
465.86	11.366
466.32	11.375
466.78	11.376
467.23	11.378
467.69	11.377
468.15	11.374
468.60	11.369
469.06	11.366
469.52	11.361
469.97	11.353
470.43	11.349
470.89	11.340
471.34	11.333
471.80	11.330
472.26	11.326
472.71	11.323
473.17	11.322
473.62	11.321
474.08	11.324
474.54	11.326
474.99	11.327
475.45	11.333
475.91	11.330
476.36	11.330
476.82	11.330
477.27	11.333
477.73	11.333
478.19	11.336
478.64	11.334
479.10	11.332
479.55	11.334
480.01	11.330
480.47	11.331
480.92	11.328
481.38	11.326
481.83	11.325
482.29	11.319
482.75	11.314
483.20	11.307
483.66	11.296
484.11	11.284
484.57	11.273
485.02	11.258
485.48	11.253
485.94	11.247
486.39	11.244
486.85	11.233
487.30	11.229
487.76	11.221
488.21	11.220
488.67	11.221
489.12	11.219
489.58	11.218
490.04	11.219
490.49	11.224
490.95	11.226
491.40	11.227
491.86	11.230
492.31	11.236
492.77	11.246
493.22	11.253
493.68	11.261
494.13	11.268
494.59	11.272
495.04	11.271
495.50	11.271
495.95	11.270
496.41	11.272
496.86	11.272
497.32	11.273
497.77	11.268
498.23	11.264
498.68	11.259
499.14	11.254
499.59	11.243
500.05	11.232
500.50	11.220
500.96	11.210
501.41	11.197
501.87	11.181
502.32	11.164
502.78	11.150
503.23	11.135
503.68	11.121
504.14	11.108
504.59	11.094
505.05	11.083
505.50	11.069
505.96	11.054
506.41	11.043
506.87	11.032
507.32	11.023
507.78	11.014
508.23	11.001
508.68	10.997
509.14	10.994
509.59	10.990
510.05	10.988
510.50	10.988
510.96	10.986
511.41	10.984
511.86	10.982
512.32	10.978
512.77	10.973
513.23	10.968
513.68	10.963
514.13	10.959
514.59	10.955
515.04	10.952
515.50	10.949
515.95	10.943
516.40	10.935
516.86	10.933
517.31	10.929
517.77	10.927
518.22	10.922
518.67	10.917
519.13	10.911
519.58	10.902
520.03	10.892
520.49	10.889
520.94	10.887
521.39	10.880
521.85	10.877
522.30	10.873
522.76	10.872
523.21	10.869
523.66	10.865
524.12	10.861
524.57	10.860
525.02	10.861
525.48	10.856
525.93	10.858
526.38	10.850
526.84	10.848
527.29	10.847
527.74	10.842
528.20	10.840
528.65	10.838
529.10	10.839
529.55	10.843
530.01	10.839
530.46	10.835
530.91	10.837
531.37	10.832
531.82	10.834
532.27	10.831
532.73	10.827
533.18	10.827
533.63	10.824
534.08	10.823
534.54	10.820
534.99	10.824
535.44	10.819
535.90	10.821
536.35	10.818
536.80	10.817
537.25	10.821
537.71	10.823
538.16	10.824
538.61	10.826
539.06	10.824
539.52	10.824
539.97	10.823
540.42	10.817
540.87	10.819
541.33	10.816
541.78	10.819
542.23	10.821
542.68	10.821
543.14	10.821
543.59	10.817
544.04	10.818
544.49	10.817
544.95	10.823
545.40	10.819
545.85	10.821
546.30	10.823
546.75	10.823
547.21	10.823
547.66	10.824
548.11	10.818
548.56	10.820
549.01	10.820
549.47	10.824
549.92	10.830
550.37	10.828
550.82	10.825
551.27	10.824
551.73	10.825
552.18	10.824
552.63	10.825
553.08	10.831
553.53	10.832
553.98	10.829
554.44	10.828
554.89	10.830
555.34	10.831
555.79	10.831
556.24	10.830
556.69	10.827
557.14	10.827
557.60	10.828
558.05	10.828
558.50	10.827
558.95	10.826
559.40	10.824
559.85	10.825
560.30	10.830
560.76	10.832
561.21	10.831
561.66	10.832
562.11	10.833
562.56	10.830
563.01	10.826
563.46	10.830
563.91	10.831
564.36	10.832
564.82	10.832
565.27	10.828
565.72	10.830
566.17	10.830
566.62	10.831
567.07	10.831
567.52	10.828
567.97	10.827
568.42	10.829
568.87	10.829
569.32	10.827
569.78	10.824
570.23	10.821
570.68	10.821
571.13	10.819
571.58	10.814
572.03	10.812
572.48	10.814
572.93	10.808
573.38	10.805
573.83	10.803
574.28	10.801
574.73	10.802
575.18	10.794
575.63	10.792
576.08	10.786
576.53	10.783
576.98	10.781
577.43	10.778
577.88	10.772
578.33	10.772
578.78	10.767
579.23	10.763
579.68	10.761
580.13	10.758
580.58	10.754
581.03	10.754
581.48	10.752
581.93	10.746
582.38	10.743
582.83	10.739
583.28	10.734
583.73	10.730
584.18	10.727
584.63	10.726
585.08	10.721
585.53	10.719
585.98	10.715
586.43	10.711
586.88	10.709
587.33	10.705
587.78	10.700
588.23	10.698
588.68	10.697
589.13	10.691
589.58	10.691
590.03	10.690
590.48	10.687
590.93	10.685
591.38	10.685
591.83	10.684
592.28	10.678
592.73	10.672
593.18	10.673
593.62	10.670
594.07	10.666
594.52	10.665
594.97	10.662
595.42	10.662
595.87	10.657
596.32	10.652
596.77	10.650
597.22	10.645
597.67	10.643
598.12	10.638
598.56	10.634
599.01	10.626
599.46	10.622
599.91	10.618
600.36	10.613
600.81	10.612
601.26	10.608
601.71	10.607
602.16	10.606
602.60	10.600
603.05	10.594
603.50	10.590
603.95	10.584
604.40	10.577
604.85	10.571
605.30	10.572
605.74	10.569
606.19	10.566
606.64	10.564
607.09	10.561
607.54	10.556
607.99	10.554
608.44	10.552
608.88	10.548
609.33	10.545
609.78	10.540
610.23	10.531
610.68	10.527
611.12	10.522
611.57	10.515
612.02	10.512
612.47	10.508
612.92	10.505
613.37	10.501
613.81	10.500
614.26	10.496
614.71	10.490
615.16	10.484
615.61	10.479
616.05	10.474
616.50	10.468
616.95	10.464
617.40	10.457
617.84	10.454
618.29	10.448
618.74	10.442
619.19	10.442
619.63	10.438
620.08	10.435
620.53	10.432
620.98	10.428
621.43	10.421
621.87	10.416
622.32	10.408
622.77	10.400
623.22	10.393
623.66	10.387
624.11	10.380
624.56	10.375
625.00	10.370
625.45	10.365
625.90	10.362
626.35	10.355
626.79	10.351
627.24	10.342
627.69	10.339
628.14	10.333
628.58	10.324
629.03	10.317
629.48	10.307
629.92	10.301
630.37	10.295
630.82	10.289
631.26	10.283
631.71	10.280
632.16	10.277
632.60	10.275
633.05	10.267
633.50	10.259
633.95	10.252
634.39	10.243
634.84	10.236
635.29	10.227
635.73	10.222
636.18	10.215
636.63	10.211
637.07	10.202
637.52	10.195
637.96	10.189
638.41	10.182
638.86	10.176
639.30	10.167
639.75	10.163
640.20	10.157
640.64	10.151
641.09	10.144
641.54	10.137
641.98	10.129
642.43	10.123
642.87	10.120
643.32	10.115
643.77	10.110
644.21	10.102
644.66	10.099
645.10	10.092
645.55	10.084
646.00	10.077
646.44	10.073
646.89	10.070
647.33	10.061
647.78	10.055
648.23	10.051
648.67	10.044
649.12	10.040
649.56	10.036
650.01	10.031
650.46	10.032
650.90	10.030
651.35	10.027
651.79	10.024
652.24	10.019
652.68	10.015
653.13	10.010
653.57	10.009
654.02	10.004
654.47	10.000
654.91	9.997
655.36	9.992
655.80	9.985
656.25	9.980
656.69	9.973
657.14	9.970
657.58	9.964
658.03	9.959
658.47	9.953
658.92	9.945
659.36	9.938
659.81	9.927
660.25	9.921
660.70	9.916
661.14	9.909
661.59	9.904
662.03	9.903
662.48	9.902
662.92	9.897
663.37	9.893
663.81	9.889
664.26	9.888
664.70	9.888
665.15	9.886
665.59	9.886
666.04	9.889
666.48	9.892
666.93	9.893
667.37	9.894
667.82	9.893
668.26	9.893
668.70	9.897
669.15	9.894
669.59	9.891
670.04	9.886
670.48	9.887
670.93	9.882
671.37	9.874
671.81	9.866
672.26	9.856
672.70	9.850
673.15	9.845
673.59	9.837
674.04	9.827
674.48	9.815
674.92	9.803
675.37	9.790
675.81	9.775
676.26	9.761
676.70	9.748
677.14	9.733
677.59	9.721
678.03	9.704
678.48	9.691
678.92	9.677
679.36	9.665
679.81	9.648
680.25	9.636
680.70	9.626
681.14	9.614
681.58	9.604
682.03	9.592
682.47	9.579
682.91	9.564
683.36	9.554
683.80	9.547
684.24	9.537
684.69	9.527
685.13	9.519
685.57	9.511
686.02	9.503
686.46	9.495
686.90	9.485
687.35	9.476
687.79	9.467
688.23	9.457
688.68	9.445
689.12	9.438
689.56	9.430
690.01	9.422
690.45	9.416
690.89	9.413
691.34	9.404
691.78	9.395
692.22	9.392
692.67	9.384
693.11	9.376
693.55	9.370
693.99	9.365
694.44	9.362
694.88	9.353
695.32	9.350
695.76	9.345
696.21	9.342
696.65	9.337
697.09	9.336
697.54	9.331
697.98	9.326
698.42	9.320
698.86	9.310
699.31	9.302
699.75	9.296
700.19	9.287
700.63	9.281
701.08	9.275
701.52	9.271
701.96	9.266
702.40	9.267
702.84	9.262
703.29	9.259
703.73	9.251
704.17	9.247
704.61	9.238
705.06	9.232
705.50	9.222
705.94	9.216
706.38	9.207
706.82	9.200
707.27	9.199
707.71	9.195
708.15	9.194
708.59	9.191
709.03	9.186
709.48	9.182
709.92	9.179
710.36	9.176
710.80	9.168
711.24	9.162
711.68	9.152
712.13	9.149
712.57	9.142
713.01	9.137
713.45	9.129
713.89	9.126
714.33	9.121
714.77	9.117
715.22	9.113
715.66	9.109
716.10	9.107
716.54	9.099
716.98	9.096
717.42	9.090
717.86	9.088
718.31	9.083
718.75	9.079
719.19	9.071
719.63	9.067
720.07	9.061
720.51	9.055
720.95	9.053
721.39	9.046
721.83	9.043
722.28	9.036
722.72	9.032
723.16	9.026
723.60	9.021
724.04	9.014
724.48	9.007
724.92	9.000
725.36	8.991
725.80	8.985
726.24	8.979
726.68	8.975
727.12	8.967
727.56	8.960
728.01	8.956
728.45	8.955
728.89	8.949
729.33	8.947
729.77	8.944
730.21	8.934
730.65	8.930
731.09	8.926
731.53	8.926
731.97	8.924
732.41	8.917
732.85	8.919
733.29	8.915
733.73	8.910
734.17	8.909
734.61	8.907
735.05	8.909
735.49	8.908
735.93	8.908
736.37	8.903
736.81	8.898
737.25	8.895
737.69	8.892
738.13	8.888
738.57	8.886
739.01	8.880
739.45	8.878
739.89	8.872
740.33	8.863
740.77	8.855
741.21	8.847
741.65	8.844
742.09	8.835
742.53	8.829
742.97	8.826
743.41	8.821
743.85	8.813
744.29	8.804
744.72	8.794
745.16	8.784
745.60	8.787
746.04	8.783
746.48	8.779
746.92	8.775
747.36	8.772
747.80	8.772
748.24	8.773
748.68	8.769
749.12	8.770
749.56	8.767
750.00	8.765
750.43	8.766
750.87	8.765
751.31	8.761
751.75	8.763
752.19	8.756
752.63	8.752
753.07	8.756
753.51	8.755
753.95	8.749
754.38	8.749
754.82	8.742
755.26	8.739
755.70	8.731
756.14	8.726
756.58	8.716
757.02	8.704
757.45	8.694
757.89	8.690
758.33	8.680
758.77	8.676
759.21	8.673
759.65	8.665
760.09	8.654
760.52	8.652
760.96	8.643
761.40	8.638
761.84	8.630
762.28	8.623
762.72	8.614
763.15	8.614
763.59	8.606
764.03	8.596
764.47	8.589
764.91	8.584
765.34	8.577
765.78	8.577
766.22	8.572
766.66	8.569
767.10	8.563
767.53	8.558
767.97	8.553
768.41	8.545
768.85	8.542
769.28	8.542
769.72	8.534
770.16	8.536
770.60	8.533
771.03	8.532
771.47	8.526
771.91	8.523
772.35	8.512
772.78	8.505
773.22	8.500
773.66	8.496
774.10	8.489
774.53	8.479
774.97	8.471
775.41	8.464
775.85	8.459
776.28	8.455
776.72	8.450
777.16	8.442
777.60	8.436
778.03	8.426
778.47	8.413
778.91	8.411
779.34	8.401
779.78	8.396
780.22	8.389
780.65	8.381
781.09	8.370
781.53	8.367
781.96	8.361
782.40	8.352
782.84	8.343
783.28	8.341
783.71	8.341
784.15	8.334
784.59	8.339
785.02	8.332
785.46	8.317
785.89	8.315
786.33	8.309
786.77	8.306
787.20	8.296
787.64	8.295
788.08	8.284
788.51	8.273
788.95	8.266
789.39	8.257
789.82	8.254
790.26	8.252
790.69	8.246
791.13	8.239
791.57	8.233
792.00	8.228
792.44	8.223
792.88	8.217
793.31	8.208
793.75	8.190
794.18	8.185
794.62	8.183
795.06	8.175
795.49	8.173
795.93	8.158
796.36	8.160
796.80	8.155
797.23	8.153
797.67	8.147
798.11	8.145
798.54	8.144
798.98	8.133
799.41	8.128
799.85	8.121
800.28	8.114
800.72	8.112
801.15	8.109
801.59	8.117
802.03	8.089
802.46	8.079
802.90	8.078
803.33	8.071
803.77	8.064
804.20	8.059
804.64	8.047
805.07	8.049
805.51	8.040
805.94	8.029
806.38	8.019
806.81	8.012
807.25	8.006
807.68	7.995
808.12	7.989
808.55	7.984
808.99	7.975
809.42	7.972
809.86	7.961
810.29	7.946
810.73	7.924
811.16	7.937
811.60	7.938
812.03	7.928
812.47	7.916
812.90	7.908
813.33	7.893
813.77	7.893
814.20	7.881
814.64	7.873
815.07	7.869
815.51	7.863
815.94	7.859
816.38	7.845
816.81	7.841
817.24	7.832
817.68	7.820
818.11	7.811
818.55	7.804
818.98	7.801
819.42	7.800
819.85	7.791
820.28	7.786
820.72	7.782
821.15	7.780
821.59	7.783
822.02	7.780
822.45	7.781
822.89	7.764
823.32	7.759
823.76	7.754
824.19	7.744
824.62	7.739
825.06	7.732
825.49	7.733
825.92	7.726
826.36	7.719
826.79	7.710
827.22	7.705
827.66	7.698
828.09	7.697
828.53	7.690
828.96	7.683
829.39	7.682
829.83	7.670
830.26	7.658
830.69	7.643
831.13	7.629
831.56	7.624
831.99	7.626
832.43	7.624
832.86	7.616
833.29	7.612
833.72	7.599
834.16	7.591
834.59	7.573
835.02	7.564
835.46	7.557
835.89	7.553
836.32	7.549
836.76	7.542
837.19	7.532
837.62	7.524
838.05	7.516
838.49	7.502
838.92	7.498
839.35	7.488
839.78	7.473
840.22	7.469
840.65	7.455
841.08	7.444
841.51	7.432
841.95	7.427
842.38	7.422
842.81	7.422
843.24	7.412
843.68	7.406
844.11	7.403
844.54	7.405
844.97	7.399
845.41	7.397
845.84	7.393
846.27	7.382
846.70	7.379
847.13	7.378
847.57	7.373
848.00	7.364
848.43	7.368
848.86	7.372
849.29	7.368
849.73	7.376
850.16	7.369
850.59	7.367
851.02	7.359
851.45	7.351
851.89	7.344
852.32	7.343
852.75	7.346
853.18	7.336
853.61	7.328
854.04	7.330
854.48	7.326
854.91	7.316
855.34	7.311
855.77	7.303
856.20	7.301
856.63	7.296
857.06	7.295
857.50	7.292
857.93	7.287
858.36	7.285
858.79	7.271
859.22	7.266
859.65	7.259
860.08	7.251
860.51	7.245
860.95	7.238
861.38	7.229
861.81	7.222
862.24	7.220
862.67	7.214
863.10	7.206
863.53	7.200
863.96	7.203
864.39	7.204
864.82	7.199
865.25	7.190
865.68	7.184
866.12	7.176
866.55	7.163
866.98	7.160
867.41	7.153
867.84	7.151
868.27	7.150
868.70	7.138
869.13	7.133
869.56	7.128
869.99	7.124
870.42	7.118
870.85	7.112
871.28	7.102
871.71	7.088
872.14	7.079
872.57	7.065
873.00	7.061
873.43	7.052
873.86	7.050
874.29	7.045
874.72	7.043
875.15	7.039
875.58	7.037
876.01	7.025
876.44	7.023
876.87	7.017
877.30	7.007
877.73	7.007
878.16	6.997
878.59	6.994
879.02	6.989
879.45	6.984
879.88	6.976
880.31	6.977
880.74	6.979
881.17	6.979
881.60	6.985
882.03	6.976
882.46	6.981
882.89	6.979
883.32	6.976
883.75	6.973
884.17	6.971
884.60	6.972
885.03	6.980
885.46	6.975
885.89	6.971
886.32	6.971
886.75	6.974
887.18	6.988
887.61	6.991
888.04	7.003
888.47	7.003
888.90	7.009
889.32	7.006
889.75	7.004
890.18	7.004
890.61	6.999
891.04	7.003
891.47	6.996
891.90	6.997
892.33	6.999
892.75	6.997
893.18	6.999
893.61	6.996
894.04	6.994
894.47	6.992
894.90	6.996
895.33	7.001
895.75	7.009
896.18	7.007
896.61	7.008
897.04	7.004
897.47	7.011
897.90	7.015
898.32	7.016
898.75	7.022
899.18	7.022
899.61	7.023
900.04	7.022
900.46	7.031
900.89	7.034
901.32	7.036
901.75	7.044
902.18	7.049
902.60	7.059
903.03	7.062
903.46	7.074
903.89	7.079
904.32	7.079
904.74	7.072
905.17	7.075
905.60	7.073
906.03	7.069
906.45	7.063
906.88	7.068
907.31	7.080
907.74	7.079
908.16	7.085
908.59	7.083
909.02	7.088
909.45	7.089
909.87	7.089
910.30	7.093
910.73	7.092
911.16	7.096
911.58	7.093
912.01	7.097
912.44	7.092
912.86	7.093
913.29	7.095
913.72	7.104
914.15	7.111
914.57	7.120
915.00	7.124
915.43	7.128
915.85	7.124
916.28	7.119
916.71	7.121
917.13	7.122
917.56	7.124
917.99	7.119
918.41	7.118
918.84	7.117
919.27	7.114
919.69	7.119
920.12	7.118
920.55	7.120
920.97	7.123
921.40	7.120
921.83	7.122
922.25	7.126
922.68	7.127
923.10	7.122
923.53	7.123
923.96	7.124
924.38	7.127
924.81	7.129
925.24	7.127
925.66	7.125
926.09	7.125
926.51	7.128
926.94	7.129
927.37	7.130
927.79	7.127
928.22	7.128
928.64	7.123
929.07	7.115
929.50	7.115
929.92	7.103
930.35	7.102
930.77	7.092
931.20	7.084
931.62	7.070
932.05	7.060
932.47	7.043
932.90	7.029
933.33	7.014
933.75	6.994
934.18	6.975
934.60	6.960
935.03	6.933
935.45	6.907
935.88	6.877
936.30	6.839
936.73	6.808
937.15	6.768
937.58	6.733
938.00	6.697
938.43	6.641
938.85	6.603
939.28	6.550
939.70	6.500
940.13	6.445
940.55	6.391
940.98	6.343
941.40	6.291
941.83	6.244
942.25	6.200
942.68	6.166
943.10	6.133
943.53	6.106
943.95	6.094
944.38	6.081
944.80	6.078
945.23	6.083
945.65	6.090
946.08	6.098
946.50	6.112
946.92	6.123
947.35	6.155
947.77	6.169
948.20	6.199
948.62	6.216
949.05	6.234
949.47	6.263
949.89	6.279
950.32	6.304
950.74	6.330
951.17	6.354
951.59	6.366
952.01	6.387
952.44	6.404
952.86	6.416
953.29	6.432
953.71	6.445
954.13	6.458
954.56	6.470
954.98	6.478
955.41	6.482
955.83	6.492
956.25	6.489
956.68	6.499
957.10	6.500
957.52	6.508
957.95	6.515
958.37	6.513
958.79	6.528
959.22	6.536
959.64	6.540
960.06	6.545
960.49	6.554
960.91	6.559
961.33	6.561
961.76	6.570
962.18	6.578
962.60	6.584
963.03	6.585
963.45	6.591
963.87	6.594
964.30	6.601
964.72	6.603
965.14	6.612
965.56	6.611
965.99	6.610
966.41	6.611
966.83	6.614
967.26	6.623
967.68	6.616
968.10	6.612
968.52	6.606
968.95	6.603
969.37	6.602
969.79	6.600
970.21	6.603
970.64	6.595
971.06	6.584
971.48	6.575
971.90	6.570
972.33	6.561
972.75	6.559
973.17	6.546
973.59	6.540
974.02	6.538
974.44	6.531
974.86	6.532
975.28	6.531
975.70	6.529
976.13	6.525
976.55	6.524
976.97	6.522
977.39	6.520
977.81	6.513
978.24	6.509
978.66	6.503
979.08	6.490
979.50	6.489
979.92	6.482
980.35	6.478
980.77	6.473
981.19	6.472
981.61	6.462
982.03	6.458
982.45	6.447
982.87	6.432
983.30	6.430
983.72	6.427
984.14	6.418
984.56	6.397
984.98	6.379
985.40	6.368
985.82	6.359
986.25	6.355
986.67	6.346
987.09	6.335
987.51	6.324
987.93	6.319
988.35	6.305
988.77	6.293
989.19	6.288
989.61	6.281
990.04	6.271
990.46	6.264
990.88	6.259
991.30	6.250
991.72	6.245
992.14	6.231
992.56	6.216
992.98	6.203
993.40	6.203
993.82	6.201
994.24	6.193
994.66	6.184
995.08	6.169
995.50	6.163
995.92	6.158
996.34	6.155
996.77	6.147
997.19	6.134
997.61	6.132
998.03	6.122
998.45	6.110
998.87	6.101
999.29	6.094
999.71	6.086
1000.13	6.088
1000.55	6.074
1000.97	6.062
1001.39	6.047
1001.81	6.045
1002.23	6.038
1002.65	6.026
1003.07	6.015
1003.49	5.996
1003.91	5.991
1004.33	5.983
1004.75	5.968
1005.17	5.955
1005.58	5.943
1006.00	5.935
1006.42	5.920
1006.84	5.908
1007.26	5.896
1007.68	5.878
1008.10	5.863
1008.52	5.848
1008.94	5.831
1009.36	5.824
1009.78	5.814
1010.20	5.799
1010.62	5.772
1011.04	5.746
1011.46	5.730
1011.88	5.708
1012.29	5.693
1012.71	5.669
1013.13	5.649
1013.55	5.634
1013.97	5.609
1014.39	5.588
1014.81	5.563
1015.23	5.549
1015.65	5.526
1016.06	5.511
1016.48	5.496
1016.90	5.479
1017.32	5.463
1017.74	5.436
1018.16	5.416
1018.58	5.394
1018.99	5.381
1019.41	5.364
1019.83	5.353
1020.25	5.341
1020.67	5.336
1021.09	5.323
1021.51	5.307
1021.92	5.285
1022.34	5.269
1022.76	5.259
1023.18	5.241
1023.60	5.235
1024.01	5.219
1024.43	5.207
1024.85	5.189
1025.27	5.172
1025.69	5.151
1026.10	5.130
1026.52	5.115
1026.94	5.085
1027.36	5.074
1027.78	5.054
1028.19	5.049
1028.61	5.026
1029.03	4.999
1029.45	4.973
1029.86	4.949
1030.28	4.920
1030.70	4.886
1031.12	4.846
1031.53	4.799
1031.95	4.757
1032.37	4.713
1032.79	4.680
1033.20	4.638
1033.62	4.585
1034.04	4.535
1034.45	4.481
1034.87	4.432
1035.29	4.385
1035.71	4.351
1036.12	4.289
1036.54	4.229
1036.96	4.164
1037.37	4.105
1037.79	4.047
1038.21	3.983
1038.62	3.929
1039.04	3.864
1039.46	3.808
1039.88	3.757
1040.29	3.707
1040.71	3.656
1041.13	3.615
1041.54	3.558
1041.96	3.523
1042.37	3.493
1042.79	3.442
1043.21	3.397
1043.62	3.333
1044.04	3.286
1044.46	3.227
1044.87	3.178
1045.29	3.123
1045.71	3.065
1046.12	3.019
1046.54	2.964
1046.95	2.921
1047.37	2.863
1047.79	2.827
1048.20	2.777
1048.62	2.718
1049.03	2.674
1049.45	2.631
1049.87	2.559
1050.28	2.493
1050.70	2.432
1051.11	2.363
1051.53	2.321
1051.95	2.266
1052.36	2.228
1052.78	2.162
1053.19	2.088
1053.61	2.029
1054.02	1.972
1054.44	1.921
1054.85	1.842
1055.27	1.772
1055.68	1.691
1056.10	1.620
1056.52	1.532
1056.93	1.463
1057.35	1.389
1057.76	1.314
1058.18	1.239
1058.59	1.153
1059.01	1.066
1059.42	0.938
1059.84	0.830
1060.25	0.709
1060.67	0.612
1061.08	0.492
1061.50	0.388
1061.91	0.317
1062.33	0.208
1062.74	0.105
1063.16	-0.013
1063.57	-0.111
1063.99	-0.226
1064.40	-0.336
1064.81	-0.447
1065.23	-0.522
1065.64	-0.608
1066.06	-0.728
1066.47	-0.835
1066.89	-0.971
1067.30	-1.059
1067.72	-1.142
1068.13	-1.200
1068.54	-1.301
1068.96	-1.369
1069.37	-1.456
1069.79	-1.555
1070.20	-1.652
1070.61	-1.816
1071.03	-1.923
1071.44	-2.035
1071.86	-2.162
1072.27	-2.292
1072.68	-2.386
1073.10	-2.507
1073.51	-2.667
1073.93	-2.823
1074.34	-2.968
1074.75	-3.077
1075.17	-3.251
1075.58	-3.390
1075.99	-3.580
1076.41	-3.780
1076.82	-4.007
1077.24	-4.208
1077.65	-4.442
1078.06	-4.699
1078.48	-4.940
1078.89	-5.226
1079.30	-5.461
1079.72	-5.757
1080.13	-6.041
1080.54	-6.331
1080.96	-6.642
1081.37	-7.028
1081.78	-7.411
1082.19	-7.723
1082.61	-8.150
1083.02	-8.543
1083.43	-8.971
1083.85	-9.359
1084.26	-9.811
1084.67	-10.228
1085.08	-10.710
1085.50	-11.232
1085.91	-11.730
1086.32	-12.285
1086.74	-12.810
1087.15	-13.356
1087.56	-13.845
1087.97	-14.364
1088.39	-14.886
1088.80	-15.447
1089.21	-16.073
1089.62	-16.712
1090.04	-17.435
1090.45	-18.151
1090.86	-19.028
1091.27	-19.733
1091.68	-20.593
1092.10	-21.505
1092.51	-22.502
1092.92	-23.402
1093.33	-23.927
1093.75	-25.832
1094.16	-29.509
1094.57	-29.186
1094.98	-32.720
1095.39	-30.655
1095.81	-32.701
1096.22	-36.172
1096.63	-37.658
1097.04	-35.322
>>>>>End Spectral Data<<<<<
