OOIBase32 Version 2.0.2.2 Data File
++++++++++++++++++++++++++++++++++++
Date: Thursday, June 02, 2016, 12:49:44
User: Valued Ocean Optics Customer
Spectrometer Serial Number: HR2B941
Spectrometer Channel: Master
Integration Time (msec): 23
Spectra Averaged: 50
Boxcar Smoothing: 10
Correct for Electrical Dark: Disabled
Time Normalized: Disabled
Dual-beam Reference: Disabled
Reference Channel: Master
Temperature: Not acquired
Spectrometer Type: S2000
ADC Type: HR2000
Number of Pixels in File: 2048
Graph Title: 
>>>>>Begin Spectral Data<<<<<
188.45	0.000
188.92	105.460
189.40	106.220
189.87	107.380
190.34	108.540
190.81	110.360
191.28	111.380
191.75	112.540
192.22	113.680
192.69	114.420
193.16	114.700
193.63	115.560
194.10	115.440
194.57	115.400
195.04	115.300
195.51	115.700
195.98	115.920
196.45	116.000
196.92	115.020
197.39	115.460
197.86	115.260
198.33	114.540
198.80	114.820
199.27	115.920
199.74	115.160
200.21	114.860
200.68	115.181
201.15	115.210
201.62	115.236
202.09	115.307
202.56	115.319
203.03	115.341
203.50	115.421
203.97	115.480
204.44	115.467
204.91	115.521
205.38	115.585
205.85	115.683
206.32	115.773
206.79	115.857
207.26	115.908
207.73	115.957
208.20	115.997
208.67	116.087
209.14	116.174
209.61	116.271
210.08	116.314
210.55	116.390
211.02	116.379
211.49	116.383
211.96	116.370
212.43	116.418
212.90	116.470
213.37	116.500
213.83	116.519
214.30	116.600
214.77	116.670
215.24	116.727
215.71	116.712
216.18	116.681
216.65	116.659
217.12	116.680
217.59	116.706
218.06	116.740
218.53	116.752
219.00	116.797
219.47	116.790
219.94	116.798
220.41	116.826
220.87	116.857
221.34	116.847
221.81	116.863
222.28	116.854
222.75	116.832
223.22	116.790
223.69	116.788
224.16	116.742
224.63	116.703
225.10	116.648
225.56	116.639
226.03	116.630
226.50	116.624
226.97	116.582
227.44	116.549
227.91	116.520
228.38	116.529
228.85	116.478
229.32	116.461
229.78	116.450
230.25	116.387
230.72	116.362
231.19	116.359
231.66	116.343
232.13	116.320
232.60	116.317
233.06	116.332
233.53	116.306
234.00	116.268
234.47	116.180
234.94	116.151
235.41	116.091
235.88	116.056
236.34	115.999
236.81	115.962
237.28	115.908
237.75	115.836
238.22	115.732
238.69	115.708
239.15	115.672
239.62	115.618
240.09	115.564
240.56	115.505
241.03	115.445
241.50	115.398
241.96	115.344
242.43	115.305
242.90	115.228
243.37	115.147
243.84	115.097
244.30	115.083
244.77	115.047
245.24	115.049
245.71	115.013
246.18	115.017
246.64	114.964
247.11	114.956
247.58	114.953
248.05	114.938
248.52	114.874
248.98	114.828
249.45	114.768
249.92	114.748
250.39	114.690
250.85	114.650
251.32	114.592
251.79	114.559
252.26	114.528
252.73	114.533
253.19	114.512
253.66	114.482
254.13	114.447
254.60	114.408
255.06	114.373
255.53	114.390
256.00	114.363
256.47	114.385
256.93	114.362
257.40	114.375
257.87	114.392
258.34	114.405
258.80	114.411
259.27	114.464
259.74	114.489
260.20	114.530
260.67	114.576
261.14	114.614
261.61	114.626
262.07	114.618
262.54	114.604
263.01	114.671
263.48	114.710
263.94	114.740
264.41	114.755
264.88	114.770
265.34	114.759
265.81	114.778
266.28	114.792
266.75	114.829
267.21	114.842
267.68	114.850
268.15	114.859
268.61	114.882
269.08	114.873
269.55	114.871
270.01	114.870
270.48	114.871
270.95	114.871
271.41	114.905
271.88	114.930
272.35	114.995
272.81	115.007
273.28	115.050
273.75	115.100
274.21	115.185
274.68	115.222
275.15	115.247
275.61	115.270
276.08	115.286
276.55	115.270
277.01	115.271
277.48	115.282
277.95	115.321
278.41	115.311
278.88	115.323
279.35	115.352
279.81	115.390
280.28	115.383
280.75	115.412
281.21	115.409
281.68	115.419
282.14	115.394
282.61	115.416
283.08	115.415
283.54	115.409
284.01	115.385
284.47	115.398
284.94	115.393
285.41	115.371
285.87	115.337
286.34	115.338
286.81	115.329
287.27	115.331
287.74	115.303
288.20	115.312
288.67	115.303
289.14	115.290
289.60	115.244
290.07	115.230
290.53	115.172
291.00	115.161
291.46	115.133
291.93	115.137
292.40	115.093
292.86	115.071
293.33	115.042
293.79	114.995
294.26	114.911
294.72	114.914
295.19	114.890
295.66	114.914
296.12	114.873
296.59	114.866
297.05	114.842
297.52	114.847
297.98	114.821
298.45	114.804
298.91	114.786
299.38	114.805
299.85	114.799
300.31	114.804
300.78	114.770
301.24	114.754
301.71	114.724
302.17	114.722
302.64	114.684
303.10	114.647
303.57	114.644
304.03	114.679
304.50	114.651
304.96	114.654
305.43	114.608
305.89	114.625
306.36	114.610
306.82	114.633
307.29	114.633
307.75	114.648
308.22	114.670
308.68	114.679
309.15	114.676
309.61	114.725
310.08	114.792
310.54	114.841
311.01	114.833
311.47	114.810
311.94	114.793
312.40	114.835
312.87	114.861
313.33	114.882
313.80	114.896
314.26	114.913
314.73	114.934
315.19	114.981
315.66	114.979
316.12	115.006
316.59	114.992
317.05	115.004
317.51	115.011
317.98	115.008
318.44	115.000
318.91	115.010
319.37	114.974
319.84	114.938
320.30	114.912
320.77	114.934
321.23	114.976
321.69	115.006
322.16	114.973
322.62	114.990
323.09	114.983
323.55	114.996
324.02	114.987
324.48	115.003
324.94	115.015
325.41	115.074
325.87	115.069
326.34	115.086
326.80	115.077
327.27	115.083
327.73	115.099
328.19	115.119
328.66	115.103
329.12	115.111
329.59	115.126
330.05	115.182
330.51	115.258
330.98	115.313
331.44	115.331
331.90	115.385
332.37	115.377
332.83	115.397
333.30	115.402
333.76	115.443
334.22	115.433
334.69	115.458
335.15	115.454
335.61	115.469
336.08	115.462
336.54	115.462
337.01	115.453
337.47	115.434
337.93	115.419
338.40	115.438
338.86	115.428
339.32	115.434
339.79	115.410
340.25	115.370
340.71	115.330
341.18	115.355
341.64	115.347
342.10	115.383
342.57	115.369
343.03	115.374
343.49	115.369
343.96	115.390
344.42	115.350
344.88	115.346
345.35	115.334
345.81	115.336
346.27	115.326
346.74	115.310
347.20	115.289
347.66	115.273
348.12	115.262
348.59	115.282
349.05	115.277
349.51	115.278
349.98	115.235
350.44	115.225
350.90	115.183
351.36	115.171
351.83	115.118
352.29	115.105
352.75	115.078
353.22	115.051
353.68	115.009
354.14	115.029
354.60	115.021
355.07	115.055
355.53	115.050
355.99	115.058
356.45	115.103
356.92	115.153
357.38	115.172
357.84	115.193
358.30	115.190
358.77	115.172
359.23	115.158
359.69	115.190
360.15	115.183
360.62	115.195
361.08	115.199
361.54	115.250
362.00	115.284
362.47	115.301
362.93	115.311
363.39	115.332
363.85	115.295
364.32	115.271
364.78	115.233
365.24	115.236
365.70	115.242
366.16	115.240
366.63	115.232
367.09	115.271
367.55	115.274
368.01	115.289
368.47	115.295
368.94	115.333
369.40	115.340
369.86	115.341
370.32	115.300
370.78	115.281
371.25	115.293
371.71	115.334
372.17	115.360
372.63	115.393
373.09	115.422
373.55	115.489
374.02	115.504
374.48	115.494
374.94	115.491
375.40	115.512
375.86	115.489
376.32	115.509
376.79	115.470
377.25	115.463
377.71	115.442
378.17	115.461
378.63	115.444
379.09	115.448
379.55	115.448
380.02	115.501
380.48	115.539
380.94	115.512
381.40	115.461
381.86	115.429
382.32	115.407
382.78	115.395
383.24	115.375
383.71	115.399
384.17	115.457
384.63	115.510
385.09	115.498
385.55	115.496
386.01	115.465
386.47	115.488
386.93	115.488
387.39	115.512
387.86	115.487
388.32	115.484
388.78	115.465
389.24	115.476
389.70	115.494
390.16	115.501
390.62	115.521
391.08	115.559
391.54	115.593
392.00	115.596
392.46	115.595
392.92	115.588
393.39	115.582
393.85	115.570
394.31	115.517
394.77	115.523
395.23	115.528
395.69	115.543
396.15	115.546
396.61	115.552
397.07	115.550
397.53	115.575
397.99	115.571
398.45	115.592
398.91	115.595
399.37	115.559
399.83	115.540
400.29	115.527
400.75	115.492
401.21	115.481
401.67	115.470
402.13	115.496
402.59	115.531
403.05	115.549
403.51	115.530
403.97	115.543
404.43	115.531
404.89	115.602
405.35	115.626
405.81	115.625
406.27	115.621
406.73	115.614
407.19	115.602
407.65	115.596
408.11	115.573
408.57	115.561
409.03	115.551
409.49	115.563
409.95	115.572
410.41	115.596
410.87	115.604
411.33	115.610
411.79	115.584
412.25	115.553
412.71	115.499
413.17	115.507
413.63	115.527
414.09	115.545
414.55	115.494
415.01	115.466
415.47	115.462
415.93	115.465
416.39	115.498
416.85	115.555
417.31	115.597
417.77	115.628
418.23	115.627
418.69	115.639
419.14	115.637
419.60	115.672
420.06	115.637
420.52	115.598
420.98	115.584
421.44	115.582
421.90	115.565
422.36	115.615
422.82	115.616
423.28	115.582
423.74	115.535
424.20	115.507
424.65	115.511
425.11	115.499
425.57	115.490
426.03	115.445
426.49	115.382
426.95	115.325
427.41	115.284
427.87	115.301
428.33	115.327
428.78	115.353
429.24	115.305
429.70	115.325
430.16	115.314
430.62	115.300
431.08	115.295
431.54	115.324
432.00	115.301
432.45	115.295
432.91	115.292
433.37	115.319
433.83	115.324
434.29	115.300
434.75	115.279
435.20	115.268
435.66	115.276
436.12	115.301
436.58	115.322
437.04	115.339
437.50	115.331
437.95	115.311
438.41	115.276
438.87	115.294
439.33	115.306
439.79	115.335
440.25	115.342
440.70	115.359
441.16	115.342
441.62	115.356
442.08	115.378
442.54	115.441
442.99	115.468
443.45	115.492
443.91	115.502
444.37	115.513
444.83	115.550
445.28	115.547
445.74	115.534
446.20	115.565
446.66	115.579
447.12	115.574
447.57	115.545
448.03	115.546
448.49	115.532
448.95	115.546
449.40	115.556
449.86	115.581
450.32	115.566
450.78	115.555
451.23	115.530
451.69	115.527
452.15	115.492
452.61	115.480
453.06	115.475
453.52	115.487
453.98	115.491
454.44	115.481
454.89	115.453
455.35	115.439
455.81	115.410
456.27	115.416
456.72	115.413
457.18	115.450
457.64	115.446
458.10	115.456
458.55	115.423
459.01	115.420
459.47	115.417
459.92	115.415
460.38	115.392
460.84	115.414
461.29	115.392
461.75	115.368
462.21	115.350
462.67	115.347
463.12	115.354
463.58	115.372
464.04	115.350
464.49	115.411
464.95	115.429
465.41	115.457
465.86	115.438
466.32	115.446
466.78	115.429
467.23	115.428
467.69	115.412
468.15	115.424
468.60	115.425
469.06	115.446
469.52	115.448
469.97	115.470
470.43	115.455
470.89	115.474
471.34	115.479
471.80	115.495
472.26	115.484
472.71	115.461
473.17	115.437
473.62	115.446
474.08	115.388
474.54	115.375
474.99	115.322
475.45	115.345
475.91	115.359
476.36	115.363
476.82	115.351
477.27	115.365
477.73	115.350
478.19	115.355
478.64	115.347
479.10	115.355
479.55	115.376
480.01	115.431
480.47	115.434
480.92	115.448
481.38	115.410
481.83	115.426
482.29	115.418
482.75	115.425
483.20	115.423
483.66	115.457
484.11	115.499
484.57	115.562
485.02	115.570
485.48	115.563
485.94	115.541
486.39	115.548
486.85	115.542
487.30	115.549
487.76	115.525
488.21	115.513
488.67	115.490
489.12	115.490
489.58	115.433
490.04	115.440
490.49	115.427
490.95	115.470
491.40	115.480
491.86	115.511
492.31	115.517
492.77	115.529
493.22	115.517
493.68	115.489
494.13	115.464
494.59	115.450
495.04	115.447
495.50	115.490
495.95	115.505
496.41	115.505
496.86	115.506
497.32	115.516
497.77	115.504
498.23	115.517
498.68	115.495
499.14	115.501
499.59	115.470
500.05	115.497
500.50	115.480
500.96	115.473
501.41	115.487
501.87	115.506
502.32	115.516
502.78	115.544
503.23	115.548
503.68	115.540
504.14	115.538
504.59	115.551
505.05	115.547
505.50	115.551
505.96	115.530
506.41	115.539
506.87	115.551
507.32	115.606
507.78	115.610
508.23	115.640
508.68	115.644
509.14	115.667
509.59	115.632
510.05	115.646
510.50	115.670
510.96	115.669
511.41	115.670
511.86	115.665
512.32	115.649
512.77	115.662
513.23	115.664
513.68	115.649
514.13	115.631
514.59	115.641
515.04	115.616
515.50	115.636
515.95	115.625
516.40	115.610
516.86	115.557
517.31	115.549
517.77	115.526
518.22	115.515
518.67	115.483
519.13	115.508
519.58	115.546
520.03	115.553
520.49	115.542
520.94	115.534
521.39	115.545
521.85	115.536
522.30	115.493
522.76	115.487
523.21	115.512
523.66	115.550
524.12	115.551
524.57	115.586
525.02	115.589
525.48	115.607
525.93	115.619
526.38	115.629
526.84	115.624
527.29	115.616
527.74	115.617
528.20	115.629
528.65	115.623
529.10	115.592
529.55	115.555
530.01	115.583
530.46	115.585
530.91	115.588
531.37	115.599
531.82	115.667
532.27	115.720
532.73	115.745
533.18	115.729
533.63	115.734
534.08	115.722
534.54	115.723
534.99	115.713
535.44	115.715
535.90	115.721
536.35	115.742
536.80	115.749
537.25	115.757
537.71	115.757
538.16	115.731
538.61	115.710
539.06	115.718
539.52	115.683
539.97	115.679
540.42	115.626
540.87	115.610
541.33	115.560
541.78	115.514
542.23	115.492
542.68	115.518
543.14	115.500
543.59	115.511
544.04	115.493
544.49	115.507
544.95	115.519
545.40	115.521
545.85	115.524
546.30	115.525
546.75	115.512
547.21	115.503
547.66	115.513
548.11	115.527
548.56	115.518
549.01	115.509
549.47	115.469
549.92	115.527
550.37	115.540
550.82	115.567
551.27	115.539
551.73	115.526
552.18	115.486
552.63	115.468
553.08	115.428
553.53	115.435
553.98	115.444
554.44	115.442
554.89	115.425
555.34	115.424
555.79	115.442
556.24	115.455
556.69	115.453
557.14	115.460
557.60	115.469
558.05	115.462
558.50	115.438
558.95	115.476
559.40	115.482
559.85	115.517
560.30	115.521
560.76	115.560
561.21	115.562
561.66	115.584
562.11	115.611
562.56	115.645
563.01	115.661
563.46	115.635
563.91	115.606
564.36	115.624
564.82	115.641
565.27	115.655
565.72	115.653
566.17	115.690
566.62	115.729
567.07	115.747
567.52	115.768
567.97	115.810
568.42	115.806
568.87	115.786
569.32	115.742
569.78	115.735
570.23	115.741
570.68	115.753
571.13	115.738
571.58	115.750
572.03	115.761
572.48	115.776
572.93	115.758
573.38	115.769
573.83	115.771
574.28	115.756
574.73	115.739
575.18	115.774
575.63	115.787
576.08	115.790
576.53	115.762
576.98	115.752
577.43	115.756
577.88	115.779
578.33	115.764
578.78	115.790
579.23	115.806
579.68	115.802
580.13	115.775
580.58	115.795
581.03	115.779
581.48	115.772
581.93	115.741
582.38	115.789
582.83	115.796
583.28	115.812
583.73	115.807
584.18	115.829
584.63	115.828
585.08	115.810
585.53	115.781
585.98	115.790
586.43	115.817
586.88	115.829
587.33	115.790
587.78	115.805
588.23	115.785
588.68	115.767
589.13	115.749
589.58	115.753
590.03	115.734
590.48	115.709
590.93	115.666
591.38	115.672
591.83	115.658
592.28	115.691
592.73	115.680
593.18	115.653
593.62	115.607
594.07	115.575
594.52	115.550
594.97	115.566
595.42	115.591
595.87	115.601
596.32	115.578
596.77	115.640
597.22	115.658
597.67	115.675
598.12	115.679
598.56	115.717
599.01	115.740
599.46	115.738
599.91	115.740
600.36	115.760
600.81	115.750
601.26	115.739
601.71	115.685
602.16	115.705
602.60	115.711
603.05	115.740
603.50	115.757
603.95	115.806
604.40	115.796
604.85	115.773
605.30	115.729
605.74	115.731
606.19	115.690
606.64	115.681
607.09	115.691
607.54	115.695
607.99	115.670
608.44	115.670
608.88	115.665
609.33	115.693
609.78	115.707
610.23	115.711
610.68	115.706
611.12	115.731
611.57	115.728
612.02	115.770
612.47	115.754
612.92	115.757
613.37	115.735
613.81	115.747
614.26	115.734
614.71	115.741
615.16	115.739
615.61	115.753
616.05	115.734
616.50	115.709
616.95	115.679
617.40	115.685
617.84	115.666
618.29	115.658
618.74	115.641
619.19	115.648
619.63	115.636
620.08	115.648
620.53	115.654
620.98	115.650
621.43	115.628
621.87	115.631
622.32	115.623
622.77	115.638
623.22	115.601
623.66	115.597
624.11	115.604
624.56	115.629
625.00	115.633
625.45	115.641
625.90	115.646
626.35	115.650
626.79	115.590
627.24	115.582
627.69	115.589
628.14	115.623
628.58	115.610
629.03	115.618
629.48	115.585
629.92	115.563
630.37	115.532
630.82	115.515
631.26	115.525
631.71	115.531
632.16	115.483
632.60	115.494
633.05	115.495
633.50	115.513
633.95	115.496
634.39	115.487
634.84	115.472
635.29	115.477
635.73	115.484
636.18	115.552
636.63	115.570
637.07	115.604
637.52	115.558
637.96	115.552
638.41	115.564
638.86	115.595
639.30	115.590
639.75	115.585
640.20	115.599
640.64	115.615
641.09	115.607
641.54	115.647
641.98	115.690
642.43	115.716
642.87	115.710
643.32	115.712
643.77	115.696
644.21	115.709
644.66	115.675
645.10	115.697
645.55	115.670
646.00	115.647
646.44	115.595
646.89	115.615
647.33	115.621
647.78	115.628
648.23	115.636
648.67	115.673
649.12	115.694
649.56	115.697
650.01	115.682
650.46	115.710
650.90	115.703
651.35	115.677
651.79	115.633
652.24	115.590
652.68	115.586
653.13	115.612
653.57	115.589
654.02	115.607
654.47	115.581
654.91	115.609
655.36	115.630
655.80	115.654
656.25	115.642
656.69	115.654
657.14	115.650
657.58	115.659
658.03	115.625
658.47	115.606
658.92	115.575
659.36	115.570
659.81	115.514
660.25	115.480
660.70	115.432
661.14	115.464
661.59	115.502
662.03	115.523
662.48	115.498
662.92	115.519
663.37	115.526
663.81	115.534
664.26	115.532
664.70	115.538
665.15	115.529
665.59	115.554
666.04	115.537
666.48	115.521
666.93	115.487
667.37	115.509
667.82	115.516
668.26	115.568
668.70	115.583
669.15	115.610
669.59	115.624
670.04	115.664
670.48	115.653
670.93	115.664
671.37	115.661
671.81	115.684
672.26	115.670
672.70	115.645
673.15	115.593
673.59	115.576
674.04	115.556
674.48	115.556
674.92	115.526
675.37	115.538
675.81	115.570
676.26	115.611
676.70	115.590
677.14	115.603
677.59	115.557
678.03	115.519
678.48	115.483
678.92	115.469
679.36	115.448
679.81	115.441
680.25	115.410
680.70	115.419
681.14	115.406
681.58	115.444
682.03	115.464
682.47	115.510
682.91	115.507
683.36	115.504
683.80	115.490
684.24	115.496
684.69	115.510
685.13	115.516
685.57	115.471
686.02	115.467
686.46	115.454
686.90	115.470
687.35	115.456
687.79	115.483
688.23	115.503
688.68	115.527
689.12	115.551
689.56	115.552
690.01	115.505
690.45	115.510
690.89	115.478
691.34	115.504
691.78	115.527
692.22	115.539
692.67	115.536
693.11	115.520
693.55	115.518
693.99	115.503
694.44	115.452
694.88	115.449
695.32	115.430
695.76	115.406
696.21	115.402
696.65	115.403
697.09	115.385
697.54	115.408
697.98	115.394
698.42	115.415
698.86	115.462
699.31	115.507
699.75	115.510
700.19	115.531
700.63	115.506
701.08	115.479
701.52	115.441
701.96	115.429
702.40	115.434
702.84	115.423
703.29	115.408
703.73	115.450
704.17	115.490
704.61	115.544
705.06	115.568
705.50	115.595
705.94	115.654
706.38	115.683
706.82	115.686
707.27	115.725
707.71	115.697
708.15	115.663
708.59	115.638
709.03	115.628
709.48	115.644
709.92	115.660
710.36	115.672
710.80	115.718
711.24	115.752
711.68	115.797
712.13	115.821
712.57	115.836
713.01	115.830
713.45	115.836
713.89	115.823
714.33	115.860
714.77	115.857
715.22	115.848
715.66	115.849
716.10	115.817
716.54	115.762
716.98	115.761
717.42	115.799
717.86	115.838
718.31	115.882
718.75	115.887
719.19	115.884
719.63	115.902
720.07	115.887
720.51	115.875
720.95	115.856
721.39	115.851
721.83	115.840
722.28	115.825
722.72	115.773
723.16	115.755
723.60	115.729
724.04	115.727
724.48	115.723
724.92	115.730
725.36	115.743
725.80	115.770
726.24	115.773
726.68	115.731
727.12	115.691
727.56	115.673
728.01	115.646
728.45	115.650
728.89	115.630
729.33	115.642
729.77	115.643
730.21	115.671
730.65	115.645
731.09	115.651
731.53	115.649
731.97	115.683
732.41	115.685
732.85	115.667
733.29	115.642
733.73	115.648
734.17	115.653
734.61	115.663
735.05	115.633
735.49	115.628
735.93	115.653
736.37	115.658
736.81	115.612
737.25	115.593
737.69	115.577
738.13	115.583
738.57	115.573
739.01	115.577
739.45	115.569
739.89	115.594
740.33	115.610
740.77	115.642
741.21	115.610
741.65	115.620
742.09	115.652
742.53	115.686
742.97	115.666
743.41	115.650
743.85	115.630
744.29	115.660
744.72	115.676
745.16	115.662
745.60	115.644
746.04	115.655
746.48	115.650
746.92	115.665
747.36	115.642
747.80	115.634
748.24	115.613
748.68	115.592
749.12	115.594
749.56	115.569
750.00	115.545
750.43	115.576
750.87	115.568
751.31	115.540
751.75	115.503
752.19	115.521
752.63	115.504
753.07	115.501
753.51	115.499
753.95	115.482
754.38	115.457
754.82	115.466
755.26	115.480
755.70	115.504
756.14	115.488
756.58	115.512
757.02	115.516
757.45	115.542
757.89	115.548
758.33	115.555
758.77	115.588
759.21	115.599
759.65	115.598
760.09	115.593
760.52	115.597
760.96	115.638
761.40	115.604
761.84	115.598
762.28	115.635
762.72	115.660
763.15	115.647
763.59	115.699
764.03	115.726
764.47	115.735
764.91	115.721
765.34	115.726
765.78	115.741
766.22	115.763
766.66	115.752
767.10	115.749
767.53	115.734
767.97	115.705
768.41	115.663
768.85	115.655
769.28	115.649
769.72	115.664
770.16	115.640
770.60	115.644
771.03	115.669
771.47	115.657
771.91	115.594
772.35	115.599
772.78	115.557
773.22	115.547
773.66	115.537
774.10	115.568
774.53	115.570
774.97	115.568
775.41	115.536
775.85	115.532
776.28	115.537
776.72	115.541
777.16	115.544
777.60	115.564
778.03	115.555
778.47	115.578
778.91	115.555
779.34	115.550
779.78	115.578
780.22	115.577
780.65	115.565
781.09	115.643
781.53	115.691
781.96	115.730
782.40	115.731
782.84	115.729
783.28	115.707
783.71	115.693
784.15	115.671
784.59	115.659
785.02	115.646
785.46	115.666
785.89	115.682
786.33	115.706
786.77	115.722
787.20	115.764
787.64	115.781
788.08	115.812
788.51	115.832
788.95	115.823
789.39	115.819
789.82	115.825
790.26	115.788
790.69	115.756
791.13	115.759
791.57	115.770
792.00	115.769
792.44	115.757
792.88	115.767
793.31	115.785
793.75	115.794
794.18	115.813
794.62	115.782
795.06	115.787
795.49	115.769
795.93	115.779
796.36	115.740
796.80	115.733
797.23	115.727
797.67	115.721
798.11	115.708
798.54	115.708
798.98	115.696
799.41	115.693
799.85	115.685
800.28	115.682
800.72	115.688
801.15	115.702
801.59	116.203
802.03	116.457
802.46	116.494
802.90	116.515
803.33	116.534
803.77	116.570
804.20	116.547
804.64	116.551
805.07	116.536
805.51	116.569
805.94	116.572
806.38	116.575
806.81	116.552
807.25	116.560
807.68	116.550
808.12	116.554
808.55	116.573
808.99	116.585
809.42	116.563
809.86	116.539
810.29	116.541
810.73	116.075
811.16	115.828
811.60	115.805
812.03	115.821
812.47	115.842
812.90	115.837
813.33	115.852
813.77	115.816
814.20	115.822
814.64	115.805
815.07	115.802
815.51	115.783
815.94	115.782
816.38	115.760
816.81	115.758
817.24	115.757
817.68	115.744
818.11	115.723
818.55	115.709
818.98	115.678
819.42	115.648
819.85	115.618
820.28	115.610
820.72	115.583
821.15	115.560
821.59	115.497
822.02	115.480
822.45	115.470
822.89	115.523
823.32	115.520
823.76	115.506
824.19	115.484
824.62	115.481
825.06	115.497
825.49	115.502
825.92	115.487
826.36	115.475
826.79	115.440
827.22	115.435
827.66	115.426
828.09	115.441
828.53	115.430
828.96	115.417
829.39	115.420
829.83	115.426
830.26	115.416
830.69	115.421
831.13	115.403
831.56	115.378
831.99	115.343
832.43	115.321
832.86	115.311
833.29	115.293
833.72	115.292
834.16	115.303
834.59	115.327
835.02	115.377
835.46	115.392
835.89	115.426
836.32	115.428
836.76	115.436
837.19	115.450
837.62	115.485
838.05	115.482
838.49	115.479
838.92	115.491
839.35	115.517
839.78	115.534
840.22	115.564
840.65	115.606
841.08	115.648
841.51	115.649
841.95	115.668
842.38	115.687
842.81	115.708
843.24	115.713
843.68	115.734
844.11	115.737
844.54	115.744
844.97	115.726
845.41	115.755
845.84	115.784
846.27	115.788
846.70	115.783
847.13	115.823
847.57	115.832
848.00	115.835
848.43	115.813
848.86	115.827
849.29	115.810
849.73	115.785
850.16	115.764
850.59	115.783
851.02	115.798
851.45	115.824
851.89	115.799
852.32	115.779
852.75	115.741
853.18	115.724
853.61	115.710
854.04	115.708
854.48	115.666
854.91	115.656
855.34	115.642
855.77	115.619
856.20	115.577
856.63	115.597
857.06	115.577
857.50	115.585
857.93	115.568
858.36	115.570
858.79	115.567
859.22	115.549
859.65	115.550
860.08	115.550
860.51	115.550
860.95	115.603
861.38	115.617
861.81	115.626
862.24	115.585
862.67	115.589
863.10	115.625
863.53	115.668
863.96	115.647
864.39	115.655
864.82	115.678
865.25	115.696
865.68	115.665
866.12	115.657
866.55	115.643
866.98	115.628
867.41	115.607
867.84	115.626
868.27	115.640
868.70	115.663
869.13	115.645
869.56	115.618
869.99	115.579
870.42	115.566
870.85	115.601
871.28	115.673
871.71	115.697
872.14	115.686
872.57	115.659
873.00	115.661
873.43	115.662
873.86	115.650
874.29	115.637
874.72	115.645
875.15	115.635
875.58	115.653
876.01	115.674
876.44	115.690
876.87	115.668
877.30	115.691
877.73	115.677
878.16	115.692
878.59	115.662
879.02	115.620
879.45	115.607
879.88	115.586
880.31	115.529
880.74	115.505
881.17	115.483
881.60	115.492
882.03	115.498
882.46	115.482
882.89	115.475
883.32	115.512
883.75	115.509
884.17	115.511
884.60	115.490
885.03	115.495
885.46	115.517
885.89	115.550
886.32	115.530
886.75	115.519
887.18	115.488
887.61	115.519
888.04	115.542
888.47	115.546
888.90	115.520
889.32	115.532
889.75	115.524
890.18	115.510
890.61	115.487
891.04	115.458
891.47	115.463
891.90	115.521
892.33	115.520
892.75	115.527
893.18	115.512
893.61	115.520
894.04	115.521
894.47	115.505
894.90	115.482
895.33	115.458
895.75	115.453
896.18	115.486
896.61	115.473
897.04	115.497
897.47	115.486
897.90	115.485
898.32	115.480
898.75	115.509
899.18	115.555
899.61	115.590
900.04	115.626
900.46	115.651
900.89	115.604
901.32	115.590
901.75	115.545
902.18	115.555
902.60	115.568
903.03	115.577
903.46	115.550
903.89	115.557
904.32	115.585
904.74	115.581
905.17	115.576
905.60	115.602
906.03	115.602
906.45	115.640
906.88	115.629
907.31	115.625
907.74	115.581
908.16	115.549
908.59	115.520
909.02	115.507
909.45	115.477
909.87	115.487
910.30	115.468
910.73	115.500
911.16	115.475
911.58	115.465
912.01	115.428
912.44	115.466
912.86	115.455
913.29	115.444
913.72	115.424
914.15	115.406
914.57	115.366
915.00	115.358
915.43	115.350
915.85	115.381
916.28	115.402
916.71	115.443
917.13	115.432
917.56	115.460
917.99	115.475
918.41	115.501
918.84	115.523
919.27	115.575
919.69	115.589
920.12	115.644
920.55	115.631
920.97	115.650
921.40	115.664
921.83	115.679
922.25	115.680
922.68	115.707
923.10	115.694
923.53	115.697
923.96	115.679
924.38	115.668
924.81	115.675
925.24	115.699
925.66	115.698
926.09	115.728
926.51	115.711
926.94	115.730
927.37	115.717
927.79	115.700
928.22	115.678
928.64	115.695
929.07	115.683
929.50	115.702
929.92	115.698
930.35	115.672
930.77	115.655
931.20	115.676
931.62	115.682
932.05	115.719
932.47	115.757
932.90	115.782
933.33	115.801
933.75	115.814
934.18	115.780
934.60	115.757
935.03	115.750
935.45	115.763
935.88	115.744
936.30	115.772
936.73	115.783
937.15	115.788
937.58	115.754
938.00	115.751
938.43	115.765
938.85	115.800
939.28	115.813
939.70	115.830
940.13	115.823
940.55	115.830
940.98	115.817
941.40	115.810
941.83	115.800
942.25	115.782
942.68	115.733
943.10	115.732
943.53	115.712
943.95	115.728
944.38	115.717
944.80	115.728
945.23	115.707
945.65	115.679
946.08	115.634
946.50	115.630
946.92	115.606
947.35	115.588
947.77	115.543
948.20	115.540
948.62	115.565
949.05	115.602
949.47	115.600
949.89	115.606
950.32	115.587
950.74	115.595
951.17	115.582
951.59	115.634
952.01	115.629
952.44	115.665
952.86	115.656
953.29	115.667
953.71	115.672
954.13	115.669
954.56	115.681
954.98	115.721
955.41	115.733
955.83	115.757
956.25	115.746
956.68	115.770
957.10	115.771
957.52	115.755
957.95	115.705
958.37	115.701
958.79	115.670
959.22	115.664
959.64	115.649
960.06	115.667
960.49	115.627
960.91	115.619
961.33	115.595
961.76	115.584
962.18	115.551
962.60	115.522
963.03	115.510
963.45	115.485
963.87	115.457
964.30	115.462
964.72	115.415
965.14	115.424
965.56	115.404
965.99	115.400
966.41	115.375
966.83	115.385
967.26	115.379
967.68	115.394
968.10	115.410
968.52	115.480
968.95	115.511
969.37	115.551
969.79	115.560
970.21	115.561
970.64	115.556
971.06	115.587
971.48	115.576
971.90	115.607
972.33	115.622
972.75	115.662
973.17	115.685
973.59	115.759
974.02	115.770
974.44	115.809
974.86	115.800
975.28	115.789
975.70	115.765
976.13	115.750
976.55	115.751
976.97	115.772
977.39	115.730
977.81	115.690
978.24	115.620
978.66	115.620
979.08	115.617
979.50	115.610
979.92	115.602
980.35	115.632
980.77	115.593
981.19	115.605
981.61	115.578
982.03	115.549
982.45	115.509
982.87	115.488
983.30	115.447
983.72	115.454
984.14	115.470
984.56	115.503
984.98	115.500
985.40	115.524
985.82	115.509
986.25	115.487
986.67	115.498
987.09	115.548
987.51	115.536
987.93	115.544
988.35	115.556
988.77	115.551
989.19	115.521
989.61	115.540
990.04	115.536
990.46	115.546
990.88	115.564
991.30	115.594
991.72	115.590
992.14	115.588
992.56	115.574
992.98	115.582
993.40	115.572
993.82	115.585
994.24	115.564
994.66	115.565
995.08	115.566
995.50	115.551
995.92	115.536
996.34	115.539
996.77	115.535
997.19	115.539
997.61	115.533
998.03	115.550
998.45	115.531
998.87	115.537
999.29	115.526
999.71	115.503
1000.13	115.467
1000.55	115.500
1000.97	115.518
1001.39	115.530
1001.81	115.508
1002.23	115.506
1002.65	115.499
1003.07	115.518
1003.49	115.511
1003.91	115.521
1004.33	115.528
1004.75	115.541
1005.17	115.562
1005.58	115.575
1006.00	115.556
1006.42	115.580
1006.84	115.559
1007.26	115.540
1007.68	115.490
1008.10	115.471
1008.52	115.461
1008.94	115.475
1009.36	115.463
1009.78	115.477
1010.20	115.482
1010.62	115.500
1011.04	115.506
1011.46	115.510
1011.88	115.507
1012.29	115.530
1012.71	115.550
1013.13	115.568
1013.55	115.565
1013.97	115.579
1014.39	115.592
1014.81	115.623
1015.23	115.602
1015.65	115.630
1016.06	115.673
1016.48	115.732
1016.90	115.751
1017.32	115.785
1017.74	115.799
1018.16	115.808
1018.58	115.790
1018.99	115.772
1019.41	115.757
1019.83	115.749
1020.25	115.749
1020.67	115.718
1021.09	115.695
1021.51	115.693
1021.92	115.683
1022.34	115.704
1022.76	115.690
1023.18	115.697
1023.60	115.692
1024.01	115.703
1024.43	115.675
1024.85	115.658
1025.27	115.604
1025.69	115.583
1026.10	115.548
1026.52	115.535
1026.94	115.521
1027.36	115.508
1027.78	115.488
1028.19	115.494
1028.61	115.474
1029.03	115.479
1029.45	115.484
1029.86	115.468
1030.28	115.422
1030.70	115.406
1031.12	115.379
1031.53	115.408
1031.95	115.395
1032.37	115.403
1032.79	115.390
1033.20	115.421
1033.62	115.436
1034.04	115.483
1034.45	115.516
1034.87	115.555
1035.29	115.563
1035.71	115.576
1036.12	115.608
1036.54	115.646
1036.96	115.660
1037.37	115.710
1037.79	115.711
1038.21	115.718
1038.62	115.696
1039.04	115.734
1039.46	115.785
1039.88	115.817
1040.29	115.822
1040.71	115.820
1041.13	115.776
1041.54	115.795
1041.96	115.764
1042.37	115.746
1042.79	115.727
1043.21	115.739
1043.62	115.733
1044.04	115.740
1044.46	115.739
1044.87	115.746
1045.29	115.722
1045.71	115.713
1046.12	115.671
1046.54	115.670
1046.95	115.645
1047.37	115.677
1047.79	115.677
1048.20	115.670
1048.62	115.643
1049.03	115.598
1049.45	115.585
1049.87	115.626
1050.28	115.605
1050.70	115.616
1051.11	115.595
1051.53	115.588
1051.95	115.546
1052.36	115.520
1052.78	115.495
1053.19	115.518
1053.61	115.504
1054.02	115.519
1054.44	115.512
1054.85	115.542
1055.27	115.540
1055.68	115.564
1056.10	115.566
1056.52	115.557
1056.93	115.538
1057.35	115.556
1057.76	115.551
1058.18	115.548
1058.59	115.511
1059.01	115.544
1059.42	115.582
1059.84	115.621
1060.25	115.636
1060.67	115.673
1061.08	115.712
1061.50	115.735
1061.91	115.677
1062.33	115.676
1062.74	115.694
1063.16	115.725
1063.57	115.725
1063.99	115.734
1064.40	115.726
1064.81	115.724
1065.23	115.689
1065.64	115.677
1066.06	115.697
1066.47	115.736
1066.89	115.765
1067.30	115.798
1067.72	115.768
1068.13	115.735
1068.54	115.714
1068.96	115.726
1069.37	115.710
1069.79	115.687
1070.20	115.665
1070.61	115.728
1071.03	115.732
1071.44	115.718
1071.86	115.710
1072.27	115.717
1072.68	115.720
1073.10	115.751
1073.51	115.777
1073.93	115.814
1074.34	115.819
1074.75	115.775
1075.17	115.737
1075.58	115.714
1075.99	115.691
1076.41	115.699
1076.82	115.688
1077.24	115.694
1077.65	115.646
1078.06	115.621
1078.48	115.606
1078.89	115.603
1079.30	115.572
1079.72	115.570
1080.13	115.562
1080.54	115.550
1080.96	115.522
1081.37	115.512
1081.78	115.490
1082.19	115.458
1082.61	115.457
1083.02	115.450
1083.43	115.448
1083.85	115.475
1084.26	115.488
1084.67	115.494
1085.08	115.470
1085.50	115.500
1085.91	115.505
1086.32	115.540
1086.74	115.568
1087.15	115.584
1087.56	115.580
1087.97	115.555
1088.39	115.521
1088.80	115.493
1089.21	115.490
1089.62	115.503
1090.04	115.517
1090.45	115.527
1090.86	115.548
1091.27	115.525
1091.68	115.503
1092.10	115.547
1092.51	115.558
1092.92	115.550
1093.33	115.560
1093.75	115.800
1094.16	115.920
1094.57	115.680
1094.98	115.700
1095.39	115.300
1095.81	115.040
1096.22	116.420
1096.63	116.220
1097.04	115.620
>>>>>End Spectral Data<<<<<
