OOIBase32 Version 2.0.2.2 Data File
++++++++++++++++++++++++++++++++++++
Date: Thursday, June 02, 2016, 12:49:44
User: Valued Ocean Optics Customer
Spectrometer Serial Number: HR2B941
Spectrometer Channel: Master
Integration Time (msec): 23
Spectra Averaged: 50
Boxcar Smoothing: 10
Correct for Electrical Dark: Disabled
Time Normalized: Disabled
Dual-beam Reference: Disabled
Reference Channel: Master
Temperature: Not acquired
Spectrometer Type: S2000
ADC Type: HR2000
Number of Pixels in File: 2048
Graph Title: 
>>>>>Begin Spectral Data<<<<<
188.45	0.000
188.92	94.700
189.40	95.840
189.87	96.780
190.34	98.000
190.81	99.160
191.28	100.380
191.75	101.420
192.22	102.460
192.69	103.540
193.16	104.080
193.63	104.840
194.10	104.480
194.57	105.300
195.04	104.980
195.51	105.620
195.98	105.840
196.45	105.940
196.92	105.480
197.39	105.220
197.86	104.880
198.33	105.000
198.80	105.280
199.27	105.600
199.74	106.560
200.21	110.380
200.68	110.346
201.15	110.843
201.62	111.330
202.09	111.830
202.56	112.354
203.03	112.883
203.50	113.429
203.97	113.972
204.44	114.494
204.91	115.035
205.38	115.443
205.85	115.791
206.32	116.138
206.79	116.544
207.26	116.954
207.73	117.491
208.20	118.111
208.67	119.025
209.14	120.192
209.61	121.870
210.08	124.013
210.55	126.920
211.02	130.830
211.49	135.756
211.96	141.502
212.43	148.609
212.90	156.735
213.37	165.569
213.83	175.397
214.30	185.668
214.77	197.279
215.24	209.678
215.71	222.414
216.18	235.960
216.65	250.145
217.12	264.881
217.59	279.750
218.06	294.167
218.53	309.410
219.00	325.290
219.47	342.659
219.94	358.895
220.41	375.064
220.87	392.746
221.34	409.676
221.81	425.310
222.28	440.670
222.75	455.737
223.22	471.109
223.69	485.033
224.16	499.138
224.63	512.729
225.10	526.347
225.56	540.814
226.03	556.375
226.50	571.480
226.97	585.581
227.44	599.546
227.91	615.541
228.38	631.194
228.85	646.599
229.32	660.869
229.78	676.927
230.25	691.760
230.72	703.824
231.19	716.833
231.66	730.732
232.13	747.134
232.60	761.631
233.06	774.471
233.53	789.638
234.00	803.433
234.47	817.996
234.94	835.445
235.41	849.883
235.88	863.301
236.34	875.434
236.81	888.857
237.28	902.252
237.75	916.748
238.22	929.350
238.69	940.004
239.15	952.329
239.62	964.386
240.09	977.644
240.56	990.240
241.03	1003.004
241.50	1016.475
241.96	1024.701
242.43	1038.810
242.90	1049.941
243.37	1059.895
243.84	1069.458
244.30	1077.516
244.77	1079.585
245.24	1087.854
245.71	1098.131
246.18	1104.892
246.64	1111.007
247.11	1117.299
247.58	1119.530
248.05	1124.204
248.52	1134.765
248.98	1140.373
249.45	1143.533
249.92	1145.218
250.39	1146.671
250.85	1149.336
251.32	1149.626
251.79	1149.852
252.26	1145.832
252.73	1144.609
253.19	1146.510
253.66	1148.692
254.13	1151.789
254.60	1155.688
255.06	1154.771
255.53	1150.090
256.00	1151.543
256.47	1154.690
256.93	1158.195
257.40	1163.333
257.87	1166.499
258.34	1165.442
258.80	1171.182
259.27	1179.066
259.74	1188.298
260.20	1198.632
260.67	1205.945
261.14	1211.260
261.61	1219.161
262.07	1226.458
262.54	1235.600
263.01	1239.827
263.48	1247.587
263.94	1254.399
264.41	1263.429
264.88	1269.892
265.34	1277.985
265.81	1284.573
266.28	1291.084
266.75	1293.625
267.21	1296.615
267.68	1300.163
268.15	1302.917
268.61	1301.748
269.08	1297.758
269.55	1291.657
270.01	1284.009
270.48	1275.116
270.95	1271.047
271.41	1262.728
271.88	1253.358
272.35	1242.013
272.81	1231.696
273.28	1220.628
273.75	1208.998
274.21	1196.466
274.68	1185.259
275.15	1174.113
275.61	1160.556
276.08	1142.960
276.55	1128.244
277.01	1113.921
277.48	1098.508
277.95	1083.745
278.41	1069.393
278.88	1056.657
279.35	1046.178
279.81	1038.431
280.28	1032.026
280.75	1024.256
281.21	1019.645
281.68	1017.049
282.14	1017.035
282.61	1015.993
283.08	1012.265
283.54	1008.591
284.01	1007.342
284.47	1008.585
284.94	1008.284
285.41	1010.764
285.87	1016.680
286.34	1023.446
286.81	1027.670
287.27	1032.710
287.74	1035.572
288.20	1037.907
288.67	1041.109
289.14	1043.229
289.60	1042.687
290.07	1042.427
290.53	1041.624
291.00	1040.866
291.46	1039.980
291.93	1035.420
292.40	1032.374
292.86	1030.461
293.33	1030.069
293.79	1024.403
294.26	1016.953
294.72	1010.331
295.19	1003.272
295.66	994.567
296.12	986.658
296.59	979.792
297.05	972.289
297.52	965.411
297.98	957.477
298.45	948.755
298.91	942.840
299.38	938.437
299.85	933.059
300.31	928.385
300.78	922.971
301.24	916.160
301.71	912.450
302.17	909.288
302.64	903.522
303.10	896.087
303.57	891.984
304.03	888.060
304.50	884.319
304.96	880.457
305.43	877.310
305.89	871.996
306.36	867.175
306.82	863.300
307.29	859.814
307.75	858.222
308.22	857.469
308.68	855.626
309.15	851.450
309.61	848.460
310.08	846.315
310.54	844.806
311.01	844.322
311.47	840.832
311.94	835.637
312.40	832.821
312.87	831.310
313.33	830.035
313.80	829.487
314.26	828.594
314.73	827.871
315.19	826.016
315.66	825.170
316.12	823.908
316.59	823.211
317.05	821.074
317.51	819.168
317.98	816.865
318.44	812.107
318.91	810.433
319.37	808.020
319.84	804.430
320.30	799.993
320.77	794.823
321.23	791.921
321.69	790.350
322.16	788.607
322.62	786.037
323.09	783.365
323.55	782.564
324.02	780.491
324.48	776.265
324.94	773.835
325.41	772.359
325.87	771.788
326.34	769.483
326.80	768.432
327.27	765.052
327.73	761.780
328.19	761.332
328.66	760.521
329.12	759.060
329.59	757.146
330.05	757.454
330.51	758.147
330.98	757.906
331.44	756.032
331.90	753.348
332.37	749.872
332.83	746.125
333.30	741.176
333.76	737.084
334.22	733.827
334.69	729.495
335.15	724.388
335.61	718.389
336.08	713.935
336.54	711.873
337.01	711.121
337.47	710.599
337.93	707.969
338.40	704.503
338.86	703.239
339.32	701.644
339.79	699.703
340.25	697.536
340.71	697.400
341.18	698.882
341.64	700.787
342.10	702.549
342.57	704.133
343.03	704.875
343.49	705.923
343.96	708.830
344.42	711.474
344.88	713.491
345.35	715.773
345.81	717.003
346.27	717.578
346.74	717.202
347.20	716.871
347.66	716.983
348.12	716.110
348.59	714.780
349.05	713.170
349.51	711.471
349.98	709.615
350.44	706.748
350.90	703.483
351.36	700.620
351.83	699.374
352.29	698.089
352.75	696.873
353.22	695.521
353.68	693.750
354.14	692.459
354.60	691.319
355.07	689.516
355.53	688.930
355.99	687.851
356.45	687.604
356.92	687.188
357.38	686.518
357.84	687.699
358.30	688.644
358.77	691.198
359.23	692.845
359.69	695.658
360.15	697.349
360.62	698.081
361.08	698.994
361.54	699.528
362.00	700.790
362.47	702.013
362.93	703.697
363.39	705.356
363.85	707.357
364.32	709.325
364.78	711.490
365.24	713.184
365.70	714.506
366.16	715.728
366.63	716.675
367.09	718.482
367.55	719.285
368.01	720.199
368.47	720.568
368.94	721.716
369.40	722.314
369.86	723.594
370.32	726.382
370.78	729.351
371.25	731.536
371.71	733.435
372.17	736.011
372.63	738.036
373.09	741.446
373.55	744.573
374.02	747.991
374.48	752.308
374.94	756.942
375.40	762.326
375.86	767.022
376.32	772.508
376.79	777.667
377.25	783.078
377.71	788.529
378.17	795.007
378.63	799.909
379.09	804.914
379.55	809.773
380.02	814.731
380.48	818.903
380.94	823.002
381.40	826.559
381.86	829.635
382.32	833.815
382.78	837.093
383.24	839.529
383.71	842.822
384.17	845.776
384.63	848.201
385.09	850.531
385.55	852.721
386.01	854.211
386.47	856.089
386.93	857.245
387.39	859.317
387.86	861.277
388.32	864.701
388.78	868.441
389.24	870.898
389.70	872.500
390.16	873.792
390.62	876.957
391.08	878.934
391.54	882.120
392.00	884.043
392.46	887.108
392.92	890.911
393.39	894.946
393.85	900.178
394.31	905.737
394.77	910.125
395.23	914.548
395.69	918.522
396.15	922.687
396.61	925.218
397.07	928.066
397.53	929.294
397.99	928.423
398.45	926.716
398.91	927.790
399.37	929.228
399.83	930.500
400.29	929.913
400.75	931.849
401.21	931.291
401.67	931.720
402.13	929.475
402.59	924.957
403.05	919.563
403.51	913.452
403.97	906.661
404.43	901.546
404.89	897.107
405.35	892.884
405.81	888.181
406.27	885.752
406.73	880.562
407.19	877.227
407.65	875.632
408.11	874.267
408.57	871.948
409.03	871.630
409.49	871.181
409.95	870.221
410.41	869.022
410.87	868.967
411.33	868.466
411.79	868.730
412.25	869.871
412.71	872.662
413.17	874.926
413.63	877.880
414.09	880.747
414.55	885.031
415.01	888.239
415.47	893.661
415.93	899.473
416.39	907.771
416.85	914.870
417.31	921.909
417.77	930.576
418.23	936.890
418.69	941.387
419.14	946.959
419.60	952.613
420.06	958.129
420.52	964.298
420.98	968.291
421.44	973.357
421.90	980.039
422.36	984.596
422.82	990.083
423.28	996.344
423.74	1000.584
424.20	1004.813
424.65	1011.276
425.11	1017.416
425.57	1023.437
426.03	1028.078
426.49	1034.356
426.95	1039.381
427.41	1042.176
427.87	1045.004
428.33	1049.698
428.78	1054.180
429.24	1059.398
429.70	1064.355
430.16	1069.838
430.62	1077.403
431.08	1083.490
431.54	1090.165
432.00	1097.143
432.45	1102.118
432.91	1107.595
433.37	1114.280
433.83	1119.629
434.29	1122.194
434.75	1123.865
435.20	1127.868
435.66	1131.496
436.12	1136.478
436.58	1143.746
437.04	1151.908
437.50	1163.801
437.95	1174.546
438.41	1187.194
438.87	1204.696
439.33	1220.371
439.79	1239.941
440.25	1261.903
440.70	1288.920
441.16	1314.971
441.62	1346.400
442.08	1382.023
442.54	1413.450
442.99	1447.637
443.45	1487.814
443.91	1528.875
444.37	1571.691
444.83	1610.861
445.28	1650.667
445.74	1687.090
446.20	1726.410
446.66	1761.882
447.12	1797.480
447.57	1834.052
448.03	1867.127
448.49	1896.328
448.95	1928.472
449.40	1956.668
449.86	1981.678
450.32	2002.220
450.78	2026.096
451.23	2040.091
451.69	2054.371
452.15	2072.525
452.61	2087.343
453.06	2094.717
453.52	2103.082
453.98	2109.309
454.44	2121.408
454.89	2129.075
455.35	2141.045
455.81	2145.915
456.27	2155.526
456.72	2166.624
457.18	2176.949
457.64	2191.589
458.10	2209.891
458.55	2231.649
459.01	2251.659
459.47	2279.810
459.92	2305.404
460.38	2331.981
460.84	2367.537
461.29	2399.993
461.75	2439.256
462.21	2472.589
462.67	2506.315
463.12	2542.206
463.58	2577.686
464.04	2606.975
464.49	2641.303
464.95	2665.296
465.41	2692.764
465.86	2726.680
466.32	2753.359
466.78	2773.561
467.23	2786.897
467.69	2796.286
468.15	2800.920
468.60	2806.561
469.06	2805.928
469.52	2806.455
469.97	2804.846
470.43	2798.085
470.89	2789.990
471.34	2782.649
471.80	2781.975
472.26	2781.976
472.71	2782.873
473.17	2781.496
473.62	2781.530
474.08	2790.371
474.54	2802.483
474.99	2813.662
475.45	2824.493
475.91	2833.372
476.36	2844.782
476.82	2859.657
477.27	2877.311
477.73	2893.895
478.19	2907.250
478.64	2913.889
479.10	2920.039
479.55	2921.027
480.01	2919.533
480.47	2916.072
480.92	2906.436
481.38	2892.928
481.83	2879.825
482.29	2860.680
482.75	2842.832
483.20	2824.244
483.66	2794.319
484.11	2768.203
484.57	2743.661
485.02	2711.862
485.48	2685.703
485.94	2663.247
486.39	2641.887
486.85	2619.993
487.30	2600.122
487.76	2584.717
488.21	2578.298
488.67	2574.310
489.12	2576.004
489.58	2582.060
490.04	2595.929
490.49	2609.296
490.95	2627.848
491.40	2648.773
491.86	2674.190
492.31	2702.779
492.77	2734.419
493.22	2769.214
493.68	2803.178
494.13	2835.971
494.59	2869.643
495.04	2900.546
495.50	2928.275
495.95	2954.434
496.41	2975.742
496.86	2992.917
497.32	3004.964
497.77	3009.993
498.23	3012.016
498.68	3007.718
499.14	2998.677
499.59	2982.841
500.05	2961.598
500.50	2936.894
500.96	2908.831
501.41	2875.818
501.87	2839.258
502.32	2799.177
502.78	2756.037
503.23	2713.404
503.68	2670.319
504.14	2624.966
504.59	2582.115
505.05	2541.728
505.50	2501.213
505.96	2463.958
506.41	2429.555
506.87	2398.646
507.32	2373.539
507.78	2350.472
508.23	2331.119
508.68	2316.487
509.14	2303.759
509.59	2295.334
510.05	2288.941
510.50	2284.158
510.96	2282.347
511.41	2282.017
511.86	2283.010
512.32	2284.630
512.77	2284.727
513.23	2285.534
513.68	2286.393
514.13	2288.168
514.59	2288.240
515.04	2288.106
515.50	2285.493
515.95	2282.808
516.40	2279.425
516.86	2272.799
517.31	2265.998
517.77	2258.829
518.22	2249.681
518.67	2239.375
519.13	2228.805
519.58	2217.386
520.03	2204.770
520.49	2193.630
520.94	2180.862
521.39	2168.563
521.85	2157.364
522.30	2147.373
522.76	2137.321
523.21	2128.541
523.66	2119.582
524.12	2111.825
524.57	2106.430
525.02	2102.471
525.48	2098.166
525.93	2096.016
526.38	2095.180
526.84	2093.920
527.29	2093.900
527.74	2095.036
528.20	2097.928
528.65	2100.661
529.10	2104.079
529.55	2107.322
530.01	2111.048
530.46	2116.625
530.91	2122.050
531.37	2126.528
531.82	2131.716
532.27	2137.422
532.73	2143.850
533.18	2149.256
533.63	2156.751
534.08	2162.658
534.54	2169.476
534.99	2175.578
535.44	2181.589
535.90	2187.893
536.35	2195.898
536.80	2202.798
537.25	2208.932
537.71	2214.529
538.16	2221.398
538.61	2228.214
539.06	2236.093
539.52	2243.776
539.97	2248.618
540.42	2254.482
540.87	2262.410
541.33	2268.539
541.78	2275.218
542.23	2281.156
542.68	2287.819
543.14	2293.917
543.59	2301.687
544.04	2307.069
544.49	2315.643
544.95	2323.360
545.40	2331.705
545.85	2339.448
546.30	2345.799
546.75	2353.670
547.21	2361.893
547.66	2369.080
548.11	2377.814
548.56	2387.086
549.01	2395.114
549.47	2406.458
549.92	2415.289
550.37	2424.380
550.82	2434.560
551.27	2445.213
551.73	2454.611
552.18	2465.226
552.63	2474.883
553.08	2484.763
553.53	2496.120
553.98	2507.248
554.44	2518.176
554.89	2528.655
555.34	2539.532
555.79	2552.088
556.24	2564.073
556.69	2575.540
557.14	2587.830
557.60	2598.871
558.05	2609.780
558.50	2621.279
558.95	2631.560
559.40	2643.585
559.85	2654.185
560.30	2666.027
560.76	2675.169
561.21	2686.862
561.66	2699.278
562.11	2709.854
562.56	2720.621
563.01	2732.056
563.46	2741.796
563.91	2751.650
564.36	2761.726
564.82	2771.747
565.27	2781.750
565.72	2790.631
566.17	2800.783
566.62	2810.217
567.07	2819.805
567.52	2827.835
567.97	2835.107
568.42	2843.864
568.87	2850.820
569.32	2859.323
569.78	2866.271
570.23	2875.025
570.68	2883.171
571.13	2889.456
571.58	2897.734
572.03	2902.830
572.48	2907.642
572.93	2911.052
573.38	2915.735
573.83	2919.417
574.28	2923.155
574.73	2927.148
575.18	2931.528
575.63	2934.651
576.08	2936.910
576.53	2938.312
576.98	2940.574
577.43	2943.694
577.88	2944.549
578.33	2946.402
578.78	2945.858
579.23	2947.011
579.68	2947.282
580.13	2947.826
580.58	2946.799
581.03	2945.195
581.48	2945.387
581.93	2944.494
582.38	2946.549
582.83	2945.852
583.28	2945.021
583.73	2946.402
584.18	2947.466
584.63	2948.196
585.08	2948.788
585.53	2947.895
585.98	2947.074
586.43	2948.516
586.88	2949.038
587.33	2950.917
587.78	2953.050
588.23	2955.585
588.68	2957.058
589.13	2960.055
589.58	2960.771
590.03	2962.945
590.48	2965.855
590.93	2969.614
591.38	2973.044
591.83	2975.970
592.28	2980.565
592.73	2984.192
593.18	2986.973
593.62	2990.232
594.07	2992.390
594.52	2995.825
594.97	3001.537
595.42	3007.839
595.87	3013.169
596.32	3018.602
596.77	3023.553
597.22	3029.998
597.67	3036.139
598.12	3040.440
598.56	3045.280
599.01	3050.629
599.46	3056.792
599.91	3061.742
600.36	3066.788
600.81	3072.697
601.26	3076.822
601.71	3081.632
602.16	3088.188
602.60	3092.370
603.05	3096.544
603.50	3102.971
603.95	3108.439
604.40	3113.683
604.85	3118.751
605.30	3123.140
605.74	3127.249
606.19	3131.952
606.64	3135.007
607.09	3139.040
607.54	3143.411
607.99	3147.646
608.44	3152.703
608.88	3157.690
609.33	3162.351
609.78	3166.577
610.23	3171.171
610.68	3176.375
611.12	3179.751
611.57	3183.141
612.02	3186.826
612.47	3190.413
612.92	3192.980
613.37	3196.407
613.81	3199.698
614.26	3203.217
614.71	3204.711
615.16	3207.319
615.61	3209.073
616.05	3210.685
616.50	3212.477
616.95	3214.294
617.40	3215.763
617.84	3216.490
618.29	3217.246
618.74	3216.846
619.19	3218.001
619.63	3218.052
620.08	3218.283
620.53	3219.484
620.98	3220.507
621.43	3221.760
621.87	3222.452
622.32	3222.214
622.77	3224.065
623.22	3223.045
623.66	3222.996
624.11	3223.247
624.56	3224.782
625.00	3225.532
625.45	3225.269
625.90	3225.700
626.35	3227.128
626.79	3226.984
627.24	3227.950
627.69	3227.257
628.14	3229.313
628.58	3228.743
629.03	3228.624
629.48	3227.636
629.92	3227.438
630.37	3226.703
630.82	3225.411
631.26	3224.234
631.71	3226.106
632.16	3224.017
632.60	3222.363
633.05	3221.225
633.50	3220.272
633.95	3218.359
634.39	3215.704
634.84	3214.852
635.29	3212.264
635.73	3209.828
636.18	3207.761
636.63	3204.274
637.07	3202.937
637.52	3199.293
637.96	3197.137
638.41	3195.778
638.86	3194.783
639.30	3191.807
639.75	3187.834
640.20	3185.557
640.64	3183.540
641.09	3180.023
641.54	3176.013
641.98	3176.612
642.43	3174.882
642.87	3173.037
643.32	3170.620
643.77	3168.698
644.21	3166.882
644.66	3165.254
645.10	3164.372
645.55	3163.509
646.00	3162.320
646.44	3160.102
646.89	3159.671
647.33	3159.113
647.78	3157.916
648.23	3156.718
648.67	3156.948
649.12	3157.533
649.56	3158.960
650.01	3164.813
650.46	3172.750
650.90	3180.223
651.35	3183.119
651.79	3185.531
652.24	3186.778
652.68	3189.926
653.13	3194.407
653.57	3197.801
654.02	3199.752
654.47	3198.710
654.91	3199.179
655.36	3200.552
655.80	3201.778
656.25	3202.969
656.69	3203.329
657.14	3205.857
657.58	3207.656
658.03	3210.365
658.47	3214.010
658.92	3216.777
659.36	3215.630
659.81	3212.811
660.25	3212.854
660.70	3215.913
661.14	3220.673
661.59	3228.180
662.03	3235.679
662.48	3244.011
662.92	3253.859
663.37	3267.589
663.81	3286.307
664.26	3304.686
664.70	3325.109
665.15	3345.793
665.59	3369.756
666.04	3393.788
666.48	3417.911
666.93	3443.889
667.37	3468.317
667.82	3493.259
668.26	3516.067
668.70	3536.744
669.15	3556.460
669.59	3573.144
670.04	3586.495
670.48	3598.536
670.93	3606.707
671.37	3610.660
671.81	3610.631
672.26	3606.397
672.70	3599.037
673.15	3587.954
673.59	3573.563
674.04	3555.840
674.48	3536.231
674.92	3511.920
675.37	3486.231
675.81	3456.417
676.26	3426.773
676.70	3395.747
677.14	3362.883
677.59	3330.799
678.03	3298.356
678.48	3266.857
678.92	3235.880
679.36	3207.145
679.81	3178.620
680.25	3151.291
680.70	3126.695
681.14	3104.066
681.58	3084.402
682.03	3064.464
682.47	3045.830
682.91	3027.548
683.36	3012.042
683.80	2997.216
684.24	2981.847
684.69	2968.085
685.13	2957.185
685.57	2944.480
686.02	2932.433
686.46	2921.004
686.90	2910.117
687.35	2900.046
687.79	2889.346
688.23	2878.481
688.68	2867.320
689.12	2856.677
689.56	2847.813
690.01	2837.118
690.45	2827.218
690.89	2817.199
691.34	2808.230
691.78	2797.936
692.22	2789.415
692.67	2779.813
693.11	2770.861
693.55	2762.732
693.99	2755.324
694.44	2745.715
694.88	2737.034
695.32	2728.257
695.76	2720.779
696.21	2711.999
696.65	2704.782
697.09	2696.395
697.54	2689.916
697.98	2682.711
698.42	2675.920
698.86	2669.495
699.31	2663.434
699.75	2657.372
700.19	2651.488
700.63	2645.493
701.08	2639.464
701.52	2634.715
701.96	2628.982
702.40	2623.721
702.84	2617.547
703.29	2612.555
703.73	2607.749
704.17	2601.838
704.61	2597.210
705.06	2590.879
705.50	2586.205
705.94	2581.344
706.38	2575.705
706.82	2571.077
707.27	2567.397
707.71	2561.961
708.15	2556.955
708.59	2552.039
709.03	2547.096
709.48	2542.253
709.92	2538.601
710.36	2534.964
710.80	2530.331
711.24	2527.485
711.68	2521.955
712.13	2519.321
712.57	2513.998
713.01	2509.654
713.45	2505.472
713.89	2500.630
714.33	2497.038
714.77	2491.516
715.22	2484.829
715.66	2479.037
716.10	2471.793
716.54	2463.296
716.98	2456.505
717.42	2448.327
717.86	2439.695
718.31	2429.912
718.75	2420.546
719.19	2409.369
719.63	2398.859
720.07	2388.472
720.51	2376.395
720.95	2366.700
721.39	2354.392
721.83	2342.907
722.28	2331.780
722.72	2320.893
723.16	2309.203
723.60	2297.193
724.04	2287.109
724.48	2277.009
724.92	2267.839
725.36	2259.361
725.80	2251.198
726.24	2242.387
726.68	2233.871
727.12	2226.255
727.56	2219.635
728.01	2213.055
728.45	2206.596
728.89	2200.915
729.33	2194.323
729.77	2188.000
730.21	2182.315
730.65	2177.006
731.09	2171.429
731.53	2165.360
731.97	2159.247
732.41	2154.407
732.85	2149.763
733.29	2143.336
733.73	2137.878
734.17	2132.282
734.61	2125.261
735.05	2119.032
735.49	2113.421
735.93	2107.428
736.37	2101.021
736.81	2094.236
737.25	2087.418
737.69	2081.280
738.13	2074.001
738.57	2066.824
739.01	2059.992
739.45	2051.968
739.89	2044.433
740.33	2037.324
740.77	2030.133
741.21	2022.656
741.65	2016.124
742.09	2008.043
742.53	2001.326
742.97	1994.139
743.41	1987.391
743.85	1980.969
744.29	1974.269
744.72	1967.429
745.16	1960.803
745.60	1954.627
746.04	1948.267
746.48	1941.523
746.92	1935.189
747.36	1928.737
747.80	1922.606
748.24	1916.906
748.68	1910.985
749.12	1904.576
749.56	1897.833
750.00	1891.667
750.43	1886.120
750.87	1879.433
751.31	1872.952
751.75	1866.504
752.19	1860.012
752.63	1852.890
753.07	1846.332
753.51	1840.211
753.95	1833.368
754.38	1827.095
754.82	1820.566
755.26	1814.876
755.70	1808.584
756.14	1802.448
756.58	1796.602
757.02	1790.157
757.45	1783.106
757.89	1776.704
758.33	1770.190
758.77	1764.930
759.21	1758.948
759.65	1752.299
760.09	1745.461
760.52	1739.828
760.96	1733.905
761.40	1728.014
761.84	1722.306
762.28	1717.444
762.72	1711.228
763.15	1705.056
763.59	1698.886
764.03	1693.173
764.47	1686.552
764.91	1680.686
765.34	1674.458
765.78	1667.827
766.22	1661.416
766.66	1655.399
767.10	1650.147
767.53	1645.090
767.97	1638.317
768.41	1632.876
768.85	1627.519
769.28	1622.057
769.72	1616.527
770.16	1610.397
770.60	1604.233
771.03	1597.891
771.47	1591.150
771.91	1585.151
772.35	1579.744
772.78	1574.732
773.22	1568.671
773.66	1563.093
774.10	1557.245
774.53	1551.361
774.97	1546.473
775.41	1541.436
775.85	1535.884
776.28	1529.916
776.72	1524.294
777.16	1518.911
777.60	1513.018
778.03	1507.182
778.47	1501.509
778.91	1495.809
779.34	1490.188
779.78	1484.654
780.22	1479.378
780.65	1473.025
781.09	1467.460
781.53	1461.583
781.96	1455.103
782.40	1449.009
782.84	1442.955
783.28	1437.089
783.71	1431.414
784.15	1425.390
784.59	1419.519
785.02	1413.704
785.46	1408.068
785.89	1402.131
786.33	1396.451
786.77	1389.857
787.20	1384.018
787.64	1378.870
788.08	1372.717
788.51	1366.805
788.95	1361.048
789.39	1355.541
789.82	1350.609
790.26	1345.368
790.69	1339.750
791.13	1334.039
791.57	1328.673
792.00	1323.769
792.44	1318.808
792.88	1313.046
793.31	1307.966
793.75	1302.524
794.18	1297.121
794.62	1292.036
795.06	1287.030
795.49	1281.880
795.93	1277.062
796.36	1271.984
796.80	1266.114
797.23	1261.420
797.67	1256.216
798.11	1251.361
798.54	1246.267
798.98	1240.441
799.41	1235.105
799.85	1229.870
800.28	1225.348
800.72	1220.397
801.15	1215.130
801.59	1210.111
802.03	1205.629
802.46	1199.971
802.90	1194.729
803.33	1189.712
803.77	1183.643
804.20	1178.497
804.64	1173.242
805.07	1168.581
805.51	1164.112
805.94	1159.174
806.38	1154.541
806.81	1149.958
807.25	1145.011
807.68	1140.219
808.12	1136.068
808.55	1132.195
808.99	1128.285
809.42	1123.991
809.86	1119.779
810.29	1115.459
810.73	1110.612
811.16	1105.585
811.60	1102.128
812.03	1098.508
812.47	1094.704
812.90	1091.346
813.33	1087.837
813.77	1084.074
814.20	1079.656
814.64	1075.359
815.07	1072.124
815.51	1068.067
815.94	1064.779
816.38	1061.530
816.81	1057.583
817.24	1053.817
817.68	1049.698
818.11	1045.875
818.55	1041.828
818.98	1038.092
819.42	1034.430
819.85	1031.479
820.28	1028.413
820.72	1024.562
821.15	1020.947
821.59	1017.642
822.02	1014.209
822.45	1010.891
822.89	1008.013
823.32	1005.187
823.76	1002.178
824.19	999.380
824.62	996.633
825.06	993.161
825.49	990.678
825.92	988.357
826.36	985.837
826.79	983.431
827.22	981.175
827.66	978.999
828.09	976.674
828.53	975.189
828.96	972.794
829.39	970.456
829.83	968.583
830.26	966.796
830.69	964.378
831.13	962.093
831.56	959.854
831.99	957.972
832.43	956.719
832.86	955.135
833.29	952.547
833.72	950.568
834.16	949.394
834.59	947.099
835.02	945.027
835.46	942.910
835.89	940.855
836.32	938.790
836.76	936.720
837.19	935.446
837.62	933.494
838.05	932.241
838.49	931.019
838.92	929.285
839.35	927.543
839.78	926.560
840.22	925.799
840.65	924.832
841.08	923.441
841.51	921.513
841.95	919.947
842.38	918.475
842.81	916.778
843.24	915.188
843.68	914.109
844.11	913.088
844.54	912.463
844.97	911.300
845.41	910.601
845.84	910.151
846.27	909.158
846.70	907.750
847.13	906.368
847.57	905.137
848.00	904.104
848.43	902.927
848.86	901.914
849.29	900.271
849.73	898.724
850.16	897.290
850.59	896.225
851.02	895.414
851.45	895.154
851.89	894.856
852.32	893.929
852.75	892.871
853.18	892.144
853.61	891.270
854.04	890.602
854.48	889.402
854.91	887.907
855.34	886.413
855.77	885.493
856.20	884.360
856.63	883.306
857.06	882.080
857.50	881.357
857.93	880.550
858.36	880.066
858.79	879.049
859.22	878.368
859.65	877.373
860.08	876.630
860.51	875.357
860.95	874.337
861.38	873.471
861.81	872.594
862.24	871.501
862.67	870.388
863.10	869.383
863.53	868.279
863.96	867.553
864.39	866.817
864.82	865.904
865.25	864.790
865.68	863.439
866.12	862.019
866.55	860.439
866.98	859.004
867.41	857.067
867.84	856.315
868.27	854.550
868.70	853.044
869.13	850.955
869.56	849.320
869.99	847.258
870.42	845.275
870.85	843.066
871.28	840.774
871.71	838.808
872.14	836.507
872.57	834.160
873.00	831.972
873.43	829.928
873.86	827.971
874.29	826.020
874.72	824.396
875.15	823.164
875.58	821.915
876.01	820.720
876.44	820.039
876.87	818.609
877.30	817.620
877.73	817.161
878.16	816.668
878.59	816.381
879.02	816.260
879.45	816.755
879.88	817.032
880.31	817.765
880.74	818.300
881.17	819.526
881.60	820.977
882.03	821.928
882.46	823.345
882.89	824.681
883.32	826.683
883.75	828.558
884.17	830.210
884.60	831.874
885.03	833.701
885.46	835.618
885.89	837.787
886.32	840.680
886.75	842.549
887.18	844.722
887.61	847.019
888.04	849.522
888.47	851.277
888.90	853.560
889.32	855.760
889.75	858.001
890.18	859.946
890.61	862.120
891.04	864.897
891.47	867.218
891.90	869.500
892.33	871.884
892.75	874.497
893.18	877.181
893.61	879.627
894.04	882.192
894.47	884.691
894.90	887.390
895.33	890.215
895.75	893.152
896.18	896.446
896.61	899.391
897.04	902.534
897.47	906.327
897.90	910.231
898.32	914.321
898.75	918.725
899.18	922.966
899.61	926.762
900.04	931.069
900.46	935.567
900.89	940.703
901.32	945.313
901.75	950.471
902.18	955.491
902.60	961.107
903.03	966.367
903.46	972.225
903.89	977.440
904.32	983.092
904.74	989.645
905.17	996.222
905.60	1002.581
906.03	1009.385
906.45	1016.121
906.88	1023.420
907.31	1030.244
907.74	1037.389
908.16	1044.858
908.59	1053.179
909.02	1060.855
909.45	1068.332
909.87	1075.873
910.30	1084.083
910.73	1092.574
911.16	1101.239
911.58	1110.364
912.01	1119.476
912.44	1128.785
912.86	1139.199
913.29	1148.642
913.72	1158.998
914.15	1169.014
914.57	1179.343
915.00	1188.871
915.43	1199.263
915.85	1209.309
916.28	1220.002
916.71	1231.030
917.13	1242.533
917.56	1253.347
917.99	1264.644
918.41	1276.406
918.84	1288.099
919.27	1298.881
919.69	1309.855
920.12	1321.302
920.55	1331.696
920.97	1342.801
921.40	1353.696
921.83	1364.423
922.25	1374.625
922.68	1383.984
923.10	1393.150
923.53	1402.746
923.96	1412.377
924.38	1421.469
924.81	1430.685
925.24	1439.076
925.66	1446.602
926.09	1453.464
926.51	1461.325
926.94	1466.906
927.37	1472.185
927.79	1476.922
928.22	1481.085
928.64	1482.881
929.07	1483.907
929.50	1483.452
929.92	1480.756
930.35	1476.328
930.77	1469.925
931.20	1461.367
931.62	1450.921
932.05	1437.008
932.47	1419.997
932.90	1400.500
933.33	1378.556
933.75	1353.684
934.18	1326.688
934.60	1297.197
935.03	1266.592
935.45	1233.081
935.88	1199.579
936.30	1165.091
936.73	1129.600
937.15	1094.372
937.58	1059.541
938.00	1024.523
938.43	990.912
938.85	958.393
939.28	926.867
939.70	896.720
940.13	869.530
940.55	843.809
940.98	821.419
941.40	801.876
941.83	785.265
942.25	771.486
942.68	760.510
943.10	752.316
943.53	747.063
943.95	743.532
944.38	742.638
944.80	744.269
945.23	747.237
945.65	751.765
946.08	757.707
946.50	764.823
946.92	773.435
947.35	783.368
947.77	794.250
948.20	805.809
948.62	818.376
949.05	831.351
949.47	845.080
949.89	858.775
950.32	873.148
950.74	887.882
951.17	902.337
951.59	916.810
952.01	931.979
952.44	946.429
952.86	961.073
953.29	975.558
953.71	989.442
954.13	1003.776
954.56	1017.663
954.98	1031.335
955.41	1045.639
955.83	1058.787
956.25	1070.736
956.68	1082.644
957.10	1094.539
957.52	1105.680
957.95	1115.737
958.37	1125.755
958.79	1136.126
959.22	1145.467
959.64	1154.629
960.06	1163.105
960.49	1171.538
960.91	1179.046
961.33	1186.112
961.76	1192.639
962.18	1199.052
962.60	1205.573
963.03	1210.846
963.45	1216.285
963.87	1221.013
964.30	1224.340
964.72	1227.956
965.14	1231.529
965.56	1233.948
965.99	1236.940
966.41	1239.073
966.83	1241.208
967.26	1242.655
967.68	1244.630
968.10	1246.066
968.52	1246.311
968.95	1247.648
969.37	1247.348
969.79	1247.080
970.21	1247.597
970.64	1247.059
971.06	1246.618
971.48	1245.345
971.90	1244.115
972.33	1242.452
972.75	1240.819
973.17	1239.544
973.59	1237.489
974.02	1235.534
974.44	1233.857
974.86	1231.232
975.28	1228.692
975.70	1226.369
976.13	1223.662
976.55	1219.975
976.97	1216.508
977.39	1213.868
977.81	1209.436
978.24	1205.785
978.66	1202.083
979.08	1197.891
979.50	1193.612
979.92	1188.994
980.35	1184.765
980.77	1180.236
981.19	1175.184
981.61	1170.090
982.03	1165.056
982.45	1160.364
982.87	1155.071
983.30	1149.696
983.72	1144.069
984.14	1138.838
984.56	1133.077
984.98	1127.545
985.40	1121.834
985.82	1115.943
986.25	1110.037
986.67	1104.669
987.09	1098.885
987.51	1092.612
987.93	1086.475
988.35	1080.239
988.77	1074.001
989.19	1067.544
989.61	1060.780
990.04	1054.621
990.46	1048.180
990.88	1041.604
991.30	1034.471
991.72	1027.517
992.14	1021.049
992.56	1014.370
992.98	1007.646
993.40	1000.916
993.82	993.758
994.24	987.099
994.66	980.567
995.08	973.403
995.50	966.293
995.92	959.528
996.34	952.580
996.77	945.668
997.19	939.472
997.61	932.902
998.03	926.300
998.45	920.045
998.87	913.864
999.29	907.732
999.71	901.760
1000.13	896.167
1000.55	890.738
1000.97	885.224
1001.39	879.878
1001.81	874.364
1002.23	869.083
1002.65	864.371
1003.07	859.013
1003.49	853.862
1003.91	849.237
1004.33	844.323
1004.75	839.672
1005.17	835.366
1005.58	830.458
1006.00	825.914
1006.42	821.458
1006.84	816.891
1007.26	812.722
1007.68	808.291
1008.10	803.950
1008.52	799.274
1008.94	794.684
1009.36	790.171
1009.78	785.573
1010.20	780.900
1010.62	776.129
1011.04	771.537
1011.46	766.553
1011.88	761.911
1012.29	757.293
1012.71	752.398
1013.13	747.642
1013.55	742.599
1013.97	737.445
1014.39	732.802
1014.81	727.848
1015.23	722.856
1015.65	717.713
1016.06	712.473
1016.48	707.241
1016.90	702.065
1017.32	697.050
1017.74	692.085
1018.16	686.960
1018.58	681.852
1018.99	676.799
1019.41	671.537
1019.83	666.436
1020.25	661.242
1020.67	656.305
1021.09	651.172
1021.51	646.142
1021.92	641.008
1022.34	636.093
1022.76	631.328
1023.18	626.368
1023.60	620.990
1024.01	616.087
1024.43	611.379
1024.85	606.457
1025.27	601.546
1025.69	596.916
1026.10	592.090
1026.52	587.017
1026.94	582.191
1027.36	577.196
1027.78	572.199
1028.19	567.462
1028.61	562.445
1029.03	557.750
1029.45	553.072
1029.86	548.515
1030.28	543.441
1030.70	538.496
1031.12	533.595
1031.53	528.661
1031.95	523.686
1032.37	519.068
1032.79	514.227
1033.20	509.206
1033.62	504.402
1034.04	499.750
1034.45	494.732
1034.87	489.738
1035.29	485.035
1035.71	480.355
1036.12	475.669
1036.54	470.965
1036.96	466.285
1037.37	461.947
1037.79	457.305
1038.21	452.592
1038.62	447.812
1039.04	443.458
1039.46	439.199
1039.88	434.751
1040.29	430.389
1040.71	426.145
1041.13	422.012
1041.54	417.772
1041.96	413.824
1042.37	409.881
1042.79	405.854
1043.21	401.971
1043.62	398.274
1044.04	394.604
1044.46	390.966
1044.87	387.412
1045.29	383.913
1045.71	380.457
1046.12	376.871
1046.54	373.550
1046.95	370.173
1047.37	366.861
1047.79	363.637
1048.20	360.370
1048.62	357.344
1049.03	354.269
1049.45	351.313
1049.87	348.291
1050.28	345.288
1050.70	342.390
1051.11	339.443
1051.53	336.539
1051.95	333.734
1052.36	330.946
1052.78	328.188
1053.19	325.292
1053.61	322.573
1054.02	319.853
1054.44	317.270
1054.85	314.734
1055.27	312.180
1055.68	309.614
1056.10	307.128
1056.52	304.610
1056.93	302.030
1057.35	299.601
1057.76	297.165
1058.18	294.717
1058.59	292.367
1059.01	289.962
1059.42	287.627
1059.84	285.351
1060.25	283.110
1060.67	280.955
1061.08	278.802
1061.50	276.633
1061.91	274.530
1062.33	272.470
1062.74	270.374
1063.16	268.348
1063.57	266.272
1063.99	264.266
1064.40	262.401
1064.81	260.533
1065.23	258.657
1065.64	256.888
1066.06	255.001
1066.47	253.244
1066.89	251.586
1067.30	249.884
1067.72	248.312
1068.13	246.652
1068.54	245.010
1068.96	243.524
1069.37	241.973
1069.79	240.386
1070.20	238.808
1070.61	237.308
1071.03	235.606
1071.44	233.974
1071.86	232.289
1072.27	230.721
1072.68	229.150
1073.10	227.529
1073.51	225.854
1073.93	224.170
1074.34	222.590
1074.75	220.911
1075.17	219.251
1075.58	217.483
1075.99	215.615
1076.41	213.809
1076.82	211.947
1077.24	210.176
1077.65	208.239
1078.06	206.368
1078.48	204.536
1078.89	202.698
1079.30	200.874
1079.72	199.080
1080.13	197.321
1080.54	195.583
1080.96	193.799
1081.37	191.970
1081.78	190.181
1082.19	188.450
1082.61	186.754
1083.02	185.004
1083.43	183.309
1083.85	181.693
1084.26	180.061
1084.67	178.533
1085.08	176.889
1085.50	175.406
1085.91	173.881
1086.32	172.396
1086.74	170.866
1087.15	169.400
1087.56	167.978
1087.97	166.549
1088.39	165.169
1088.80	163.776
1089.21	162.444
1089.62	161.151
1090.04	159.846
1090.45	158.542
1090.86	157.271
1091.27	156.004
1091.68	154.754
1092.10	153.630
1092.51	152.430
1092.92	151.298
1093.33	150.500
1093.75	148.860
1094.16	147.300
1094.57	146.380
1094.98	145.040
1095.39	143.680
1095.81	142.440
1096.22	142.960
1096.63	141.500
1097.04	140.760
>>>>>End Spectral Data<<<<<
